  256.8750,   16.1250,   42.0625,1478626603.374
  283.2500,   16.7500,   36.3125,1478626603.381
  143.6875,    9.6875,   -7.5000,1478626603.402
  -51.7500,    0.3125,  -27.8125,1478626603.426
 -144.0000,   -3.9375,  -25.1250,1478626603.441
  -94.1250,   -3.3750,  -13.2500,1478626603.462
   14.5000,    2.3750,   -0.6875,1478626603.478
  113.0000,    6.7500,    9.2500,1478626603.501
  169.5000,   18.0000,   29.3125,1478626603.531
  262.1875,   11.3125,   60.2500,1478626603.539
  372.2500,  -14.3125,   81.7500,1478626603.560
  321.6250,  -68.7500,   53.0000,1478626603.582
  544.3750, -140.1875,  -28.2500,1478626603.597
 1315.5625,  -16.3750, -128.6250,1478626603.620
  842.9375,   65.5625,  173.5000,1478626603.642
  140.1250,   37.9375,   11.1250,1478626603.657
 -294.9375,   40.1875,   16.3125,1478626603.680
 -483.7500,  -10.8750,  108.5625,1478626603.703
 -485.8750,  -58.6250,   -8.2500,1478626603.719
  -77.3125,  -16.2500,  -38.1250,1478626603.740
  336.5000,   15.8125,   49.4375,1478626603.763
  358.1875,   21.5625,   52.0625,1478626603.778
   98.9375,    6.3125,   39.3125,1478626603.800
 -175.1250,    2.6250,   20.5000,1478626603.823
 -231.7500,    2.6250,   -3.5625,1478626603.839
 -108.5625,    6.1875,   -1.6875,1478626603.860
   47.2500,    3.5000,   -3.8750,1478626603.883
   87.6875,  -11.1250,  -11.3125,1478626603.898
   29.6250,  -13.9375,  -19.4375,1478626603.920
  -52.4375,  -14.6250,   -8.1250,1478626603.943
  -40.3750,   -1.7500,  -23.7500,1478626603.959
  -37.4375,    2.9375,   -3.5625,1478626603.981
    1.3125,    5.8125,   13.7500,1478626604.003
  123.1250,   22.3125,   39.5625,1478626604.017
  218.2500,   26.6875,   57.0625,1478626604.040
  206.9375,   16.0000,   71.0000,1478626604.063
   58.4375,   -3.1250,   80.7500,1478626604.078
  -87.3750,  -24.8750,   76.1875,1478626604.100
 -119.0625,  -23.1875,   65.0625,1478626604.122
  -79.0625,  -12.2500,   41.2500,1478626604.137
  -16.3750,    2.5000,   30.4375,1478626604.160
   27.9375,   15.5625,   19.6875,1478626604.174
   25.6250,   13.8750,    4.4375,1478626604.197
   -4.8125,    2.0625,  -14.5000,1478626604.220
  -13.5625,   -4.5625,  -27.5000,1478626604.234
  -24.8125,   -6.0625,  -39.8750,1478626604.259
  -54.1250,   -5.7500,  -50.8125,1478626604.280
  -58.7500,   -5.5000,  -71.5000,1478626604.295
  -55.8750,    8.8750, -109.3750,1478626604.318
   12.1250,   38.0625, -109.1250,1478626604.340
   14.3125,   93.0625,  -35.7500,1478626604.363
  -34.8125,   61.8125,   17.0000,1478626604.377
   53.8125,  -10.3750,    0.3125,1478626604.399
  153.9375,  -37.9375,  -97.5000,1478626604.423
  152.3750,    8.9375, -132.5000,1478626604.437
   57.0625,   34.0000,  -27.5625,1478626604.459
 -138.8750,  -14.5000,   15.0625,1478626604.474
  -61.1875,   11.8750,   -8.1250,1478626604.497
   17.5625,   10.0625,   19.0625,1478626604.519
   -9.3125,   -6.1250,   22.5625,1478626604.537
  -39.3125,  -14.8125,   27.8750,1478626604.557
  -23.0000,  -13.3750,   23.8750,1478626604.579
   -3.6875,   -3.8125,    4.3125,1478626604.594
  -13.8125,    2.1250,   -2.7500,1478626604.617
  -26.8125,    5.7500,  -11.3125,1478626604.639
  -39.4375,   12.6875,  -14.3125,1478626604.654
  -37.0625,   18.8750,  -32.5625,1478626604.677
  -55.8125,    3.9375,  -46.6250,1478626604.701
  -46.8125,  -12.3750,  -42.3750,1478626604.714
   47.5000,  -25.9375,  -58.1250,1478626604.737
  167.9375,   -9.0000,  -53.0625,1478626604.759
  223.8125,   13.0625,  -57.6875,1478626604.776
  126.5625,  -18.5000,  -60.5000,1478626604.797
   16.6250,    2.6875,    7.1875,1478626604.820
 -122.5000,   -3.0000,   44.1250,1478626604.836
  -85.0000,  -12.2500,   19.9375,1478626604.857
   94.5000,   14.6875,   61.0625,1478626604.880
   62.5000,   19.5625,   74.3125,1478626604.896
  -22.6875,    6.2500,   52.3750,1478626604.917
  -38.6250,    6.4375,   62.3125,1478626604.939
   -1.7500,    8.1250,   60.5000,1478626604.956
   14.9375,   18.8125,   63.9375,1478626604.977
  -14.8125,   17.6250,   57.7500,1478626604.999
  -52.5625,    5.8125,   42.9375,1478626605.016
  -34.4375,   -4.1250,   21.2500,1478626605.037
    0.9375,   -9.6250,    9.0000,1478626605.059
   -4.2500,   -1.4375,   18.0000,1478626605.076
    8.2500,    2.5000,   10.1250,1478626605.097
   35.9375,    4.1250,   32.8750,1478626605.119
   15.9375,    7.2500,   53.3750,1478626605.136
  -43.5000,    2.3750,   60.1250,1478626605.157
  -72.5000,   -1.0000,   50.2500,1478626605.179
  -75.1875,   -7.1250,   26.8125,1478626605.196
  -35.1250,   -9.9375,    3.5625,1478626605.217
    4.7500,   -9.9375,  -16.1250,1478626605.239
   15.6875,   -8.4375,  -31.1250,1478626605.256
    4.2500,   -4.8125,  -31.0625,1478626605.277
   -7.0000,   -3.0625,  -27.0625,1478626605.299
  -12.1250,   -4.6250,  -30.2500,1478626605.315
  -14.0000,   -1.0625,  -37.5625,1478626605.345
  -41.1875,    7.0625,  -69.7500,1478626605.360
  -56.5625,   14.3125, -125.7500,1478626605.376
  -48.8750,    8.0000, -176.4375,1478626605.397
  -12.6250,   15.0625, -189.2500,1478626605.420
   54.0625,   29.0625, -153.0625,1478626605.436
   24.4375,   46.7500,  -64.2500,1478626605.457
   50.9375,   43.5625,    1.6250,1478626605.480
    7.9375,   11.9375,  -26.3750,1478626605.496
  106.7500,  -20.6250,  -99.6875,1478626605.525
  -87.5000,  -38.5625,  -25.5625,1478626605.539
 -121.8750,  -45.0625,  -17.3750,1478626605.556
  -48.8750,  -28.1250,   18.3125,1478626605.577
   -4.5000,   -6.1250,   33.7500,1478626605.599
  -13.8125,   -4.8750,   18.3750,1478626605.624
  -16.7500,   -0.3750,   17.0625,1478626605.637
  -11.0625,    2.1875,   25.0625,1478626605.659
  -16.5000,   -3.8125,   17.0625,1478626605.676
   -8.6250,   -4.0000,   14.5000,1478626605.698
  -21.5000,   -3.4375,   11.7500,1478626605.719
  -53.8125,   -1.8750,    2.8125,1478626605.736
 -104.8750,    8.1875,    1.9375,1478626605.758
 -321.9375,   20.4375,  -14.7500,1478626605.779
 -704.5000,   14.0000,  -39.2500,1478626605.795
 -950.4375,    9.3750,  -79.6250,1478626605.824
 -948.1250,   -8.6875, -126.1875,1478626605.840
 -599.6875,  -50.2500, -132.3125,1478626605.856
 -242.3125,  -51.2500,  -38.6250,1478626605.879
  124.3750,    2.8125,   73.0000,1478626605.902
  302.1875,   30.8750,  103.1875,1478626605.923
  291.6875,   22.2500,   41.0000,1478626605.938
  118.1250,   -2.7500,  -23.0000,1478626605.960
  -95.2500,  -22.5625,  -55.5625,1478626605.976
 -190.9375,  -20.1250,  -56.1250,1478626605.998
 -137.4375,   -7.6250,  -34.6250,1478626606.028
  -13.0625,   10.3750,    0.1250,1478626606.035
   84.8750,   24.0625,   23.3750,1478626606.058
  139.0000,   27.7500,   23.5000,1478626606.080
  179.2500,   24.6250,   42.1250,1478626606.096
  239.5000,  -19.0000,   53.5000,1478626606.117
  289.8750,  -94.8750,   55.8750,1478626606.140
  447.8750,  -87.6250,  -43.8125,1478626606.155
  689.2500,  -42.6250, -150.8125,1478626606.177
  564.3750,   47.7500,    8.5000,1478626606.201
  -42.4375,   99.5625,   90.3750,1478626606.215
 -694.3125,   32.6250,  -55.9375,1478626606.238
 -887.9375,    1.0000,  -82.1250,1478626606.260
 -626.5000,   13.4375,  -16.0000,1478626606.275
  -32.2500,    5.5000,  -34.6875,1478626606.297
  323.1875,   11.1250,  -24.5625,1478626606.320
  346.4375,   11.3750,   10.8125,1478626606.335
  175.8750,    4.3125,   14.8125,1478626606.357
  -84.6875,   -1.6875,    0.9375,1478626606.380
 -247.3125,    2.8750,   -7.7500,1478626606.395
 -213.8750,    5.5625,   -1.4375,1478626606.418
  -20.5625,  -23.0625,    6.0000,1478626606.440
  193.6875,  -58.8750,  -21.4375,1478626606.457
  385.7500,  -52.9375,  -11.6875,1478626606.479
  701.4375,  -14.7500,   32.3125,1478626606.500
  977.2500,   33.6250,   37.5000,1478626606.515
  971.6250,   77.8750,   47.9375,1478626606.538
  207.5625,   62.5625,  100.3750,1478626606.552
 -699.1250,  -22.7500,  -44.9375,1478626606.583
-1124.6875,   14.8125, -102.3750,1478626606.598
-1239.1250,  -40.7500, -101.8125,1478626606.612
 -714.5000,  -21.8750,  -78.4375,1478626606.635
  547.7500,  -34.5625,   19.1250,1478626606.657
 1091.0000,   14.5625,   63.8125,1478626606.672
  919.5000,   76.1875,  100.3750,1478626606.695
  330.5000,   21.5000,   12.0625,1478626606.717
 -450.5000,   10.6250,  -31.3750,1478626606.732
 -825.7500,   17.0625,  -61.8750,1478626606.756
 -894.6875,  -33.5625,  -71.7500,1478626606.778
 -455.3125,  -22.1875,  -32.9375,1478626606.792
  383.3750,  -15.6875,   14.1250,1478626606.815
  865.6875,   21.1875,   58.0625,1478626606.837
  705.8750,   55.4375,   80.6250,1478626606.852
  146.9375,  -10.8750,    0.5000,1478626606.876
 -470.8750,   -6.0625,  -39.9375,1478626606.898
 -718.1250,  -13.3125,  -33.9375,1478626606.922
 -731.1875,  -58.9375,  -45.9375,1478626606.935
    6.3750,  -27.1250,   -9.2500,1478626606.958
  742.6875,   18.0625,   60.0625,1478626606.972
  665.6875,   55.0000,   83.1875,1478626606.995
  159.0625,  -10.1875,   15.1875,1478626607.018
 -457.9375,   -5.4375,  -54.8750,1478626607.033
 -727.0625,   -8.7500,  -39.8125,1478626607.055
 -662.7500,  -40.1250,  -51.1875,1478626607.078
   31.3750,  -12.7500,   12.5000,1478626607.092
  662.5625,   31.8125,   38.9375,1478626607.116
  667.1250,   38.2500,   48.0625,1478626607.146
  258.0000,  -19.8750,   -5.3125,1478626607.152
 -335.4375,   -0.3750,  -45.7500,1478626607.182
 -592.4375,    7.3125,  -45.6875,1478626607.197
 -547.5625,  -37.3125,  -42.1250,1478626607.220
   51.5000,  -16.1250,   10.1875,1478626607.236
  679.5625,   33.2500,   43.1250,1478626607.257
  626.0625,   42.6875,   48.7500,1478626607.273
  226.2500,  -37.6875,  -14.2500,1478626607.297
 -376.5000,   -8.9375,  -42.6250,1478626607.325
 -612.0000,   10.5625,  -45.1875,1478626607.333
 -529.7500,  -38.3125,  -63.3125,1478626607.356
   92.5625,  -21.9375,    6.0625,1478626607.377
  670.7500,   31.7500,   41.9375,1478626607.393
  600.5000,   37.7500,   44.8125,1478626607.417
  194.5000,  -32.0000,  -15.5000,1478626607.468
 -387.7500,  -16.8750,  -50.6250,1478626607.469
 -638.5625,   19.3750,  -39.5625,1478626607.493
 -566.0000,  -29.0625,  -56.6875,1478626607.508
   28.0000,  -14.7500,   26.0625,1478626607.523
  595.4375,   23.7500,   52.8125,1478626607.535
  644.5000,   29.2500,   38.6250,1478626607.558
  301.5000,  -30.8125,   -5.4375,1478626607.573
 -297.1875,   -2.4375,  -36.5625,1478626607.594
 -690.8125,   16.9375,  -35.3750,1478626607.617
 -666.3750,  -20.2500,  -46.8750,1478626607.633
 -154.1875,  -10.5000,   10.0000,1478626607.654
  518.0625,    5.6875,   59.1250,1478626607.678
  814.7500,   20.8750,   42.1875,1478626607.693
  575.0625,  -11.1250,   24.5625,1478626607.714
   83.7500,  -22.1250,  -18.1250,1478626607.737
 -523.9375,   -2.4375,  -36.2500,1478626607.753
 -712.5625,  -17.2500,  -35.0000,1478626607.776
 -575.3750,  -30.6875,  -37.3125,1478626607.797
   32.3125,   -1.0000,   12.8125,1478626607.843
  562.8750,   24.8750,   41.2500,1478626607.844
  653.5625,   29.8125,   31.0000,1478626607.866
  340.4375,   -7.8750,    0.0000,1478626607.881
 -179.5000,  -27.7500,  -34.4375,1478626607.904
 -544.9375,    5.8750,  -34.5000,1478626607.925
 -593.5000,  -51.1250,  -41.8750,1478626607.942
 -217.5625,   -7.1250,    1.4375,1478626607.972
  443.3750,    0.4375,   40.8125,1478626607.993
  745.5000,   39.3125,   33.5625,1478626608.008
  490.0000,   21.0625,   34.3750,1478626608.016
  -54.6250,  -16.6250,  -15.3125,1478626608.038
 -614.9375,    5.8750,  -45.3750,1478626608.054
 -718.5625,  -21.6875,  -45.5000,1478626608.076
 -458.0625,  -27.9375,  -21.6875,1478626608.099
  164.9375,   -3.8125,   38.4375,1478626608.120
  656.2500,    5.0625,   43.4375,1478626608.144
  745.9375,   13.4375,   25.1250,1478626608.159
  410.6875,   -7.7500,   14.2500,1478626608.181
 -195.8750,  -18.0000,  -23.4375,1478626608.204
 -709.1250,    7.4375,  -61.6875,1478626608.227
 -767.8125,  -12.8750,  -54.1250,1478626608.249
 -452.6875,  -13.6250,  -19.5000,1478626608.264
  181.5000,    3.8750,   37.2500,1478626608.286
  645.7500,   13.0625,   61.6250,1478626608.309
  745.5000,   16.1250,   46.3750,1478626608.331
  439.2500,   -7.8125,   18.8750,1478626608.353
 -107.0625,  -16.9375,  -20.0625,1478626608.355
 -643.5000,    6.2500,  -50.2500,1478626608.375
 -753.1875,   -7.4375,  -51.7500,1478626608.398
 -485.6250,  -13.5000,  -31.3750,1478626608.421
   95.6250,   -1.5000,   35.0625,1478626608.436
  587.9375,    3.1875,   61.2500,1478626608.459
  755.5625,    8.9375,   48.8750,1478626608.481
  560.8125,    3.3125,   26.3125,1478626608.497
  109.1250,  -12.3125,  -12.9375,1478626608.519
 -467.6875,    4.5625,  -27.9375,1478626608.540
 -729.5000,   -1.3750,  -35.1875,1478626608.558
 -642.6250,  -13.2500,  -30.6875,1478626608.570
 -164.4375,   -0.6875,   15.3125,1478626608.592
  412.4375,    8.7500,   48.3125,1478626608.624
  687.0625,   21.5000,   45.3125,1478626608.646
  601.8125,   14.0625,   22.3125,1478626608.661
  207.1250,  -18.8125,  -13.3750,1478626608.684
 -326.4375,   -2.0625,  -41.8750,1478626608.697
 -685.1875,   -4.9375,  -64.1250,1478626608.715
 -689.8750,    6.6875,  -68.1875,1478626608.734
 -343.6250,    1.9375,  -24.6250,1478626608.749
  161.5625,   24.4375,   21.2500,1478626608.772
  488.3125,   32.5625,   55.5000,1478626608.803
  566.5625,   24.7500,   47.7500,1478626608.817
  433.2500,    6.4375,    4.5000,1478626608.832
  161.5625,  -10.0000,  -26.0625,1478626608.855
 -122.8125,   -3.0625,  -47.3750,1478626608.869
 -325.3750,   11.8125,  -63.0625,1478626608.893
 -425.6875,   20.1875,  -58.1250,1478626608.915
 -395.0625,   27.1875,  -41.3750,1478626608.930
 -197.8125,   19.1250,  -19.3125,1478626608.954
   65.8125,   22.8750,    1.0625,1478626608.975
  368.3125,   23.0000,   32.4375,1478626608.990
  507.1250,   24.9375,   51.1875,1478626609.012
  395.2500,   27.5000,   34.6250,1478626609.035
   81.2500,   12.6250,  -17.2500,1478626609.050
 -224.7500,   -3.5625,  -41.8750,1478626609.081
 -432.2500,    5.0625,  -65.8125,1478626609.095
 -490.0000,   25.7500,  -72.7500,1478626609.110
 -371.0625,   37.8125,  -51.0625,1478626609.132
 -155.5625,   42.7500,  -27.9375,1478626609.155
   73.3125,   43.3125,   -3.8125,1478626609.169
  208.1875,   42.8125,   -3.8125,1478626609.192
  210.1875,   33.0625,  -16.5000,1478626609.215
  130.8125,   26.4375,  -30.6250,1478626609.229
   17.4375,   30.9375,  -36.8125,1478626609.254
  -70.0625,   32.9375,  -26.4375,1478626609.276
 -116.3750,   29.1250,  -19.4375,1478626609.289
 -108.9375,   22.1875,  -20.8750,1478626609.312
  -59.4375,   20.0000,  -14.0625,1478626609.335
    3.8750,   20.9375,   -9.6875,1478626609.357
   29.3750,   22.1250,  -12.0625,1478626609.373
   21.6875,   20.5625,  -16.7500,1478626609.395
   -3.8125,   17.8750,  -19.8125,1478626609.409
  -15.0000,   14.5625,  -20.6250,1478626609.433
   -4.6250,   15.0000,  -17.6250,1478626609.455
   17.5000,   12.3750,  -13.2500,1478626609.470
   28.8750,    8.5625,   -9.1250,1478626609.493
   13.8750,    7.0000,   -7.6875,1478626609.515
   -1.3125,    8.7500,   -9.1875,1478626609.531
   -7.1875,    8.6250,   -7.8125,1478626609.553
   -3.8125,   12.0000,   -7.3750,1478626609.575
    5.0000,   11.4375,   -3.9375,1478626609.589
    3.8750,    9.5000,   -2.8125,1478626609.613
    1.8125,   11.5625,   -3.3125,1478626609.636
   12.8750,   11.9375,   -2.3125,1478626609.649
   15.1250,   10.3125,   -1.3750,1478626609.672
   -4.7500,    4.2500,    1.3750,1478626609.688
  -19.5000,   -0.7500,    1.8750,1478626609.709
   -7.3125,    0.0000,   -0.8125,1478626609.732
    6.5000,    2.5625,    2.2500,1478626609.748
   12.4375,    2.7500,    1.5625,1478626609.769
    8.0000,    1.9375,   -1.3125,1478626609.792
   -5.4375,   -0.1875,   -3.0000,1478626609.809
   -6.9375,    0.0625,   -4.0000,1478626609.829
    1.2500,   -0.6250,   -2.0000,1478626609.852
   14.3750,    0.0625,   -2.5625,1478626609.868
   15.5625,    0.5625,   -0.5625,1478626609.889
    3.4375,    0.0625,    0.8750,1478626609.913
   -1.0625,   -0.7500,   -2.3750,1478626609.928
    3.3750,   -1.3750,   -3.6875,1478626609.949
    6.1875,   -1.3750,   -2.5625,1478626609.973
    7.0625,   -0.8750,   -2.7500,1478626609.988
    0.6875,   -0.8125,   -1.1875,1478626610.010
   -3.4375,   -0.9375,   -0.8750,1478626610.032
   -1.0625,   -0.4375,   -0.3125,1478626610.048
   -1.0625,   -0.2500,   -1.1875,1478626610.069
   -0.0625,    0.2500,   -2.2500,1478626610.092
    6.0000,    0.2500,   -1.0000,1478626610.108
    9.6250,   -0.1875,    1.3125,1478626610.129
   10.1875,    0.4375,    2.6875,1478626610.152
    8.6250,    1.3125,    3.3750,1478626610.168
    3.7500,    1.0625,    1.5000,1478626610.192
    2.2500,    0.2500,   -1.4375,1478626610.212
    0.2500,    0.1250,   -2.3125,1478626610.228
    0.6250,    0.2500,   -2.8125,1478626610.249
    2.0000,    0.3750,   -1.3750,1478626610.272
   -0.0625,    0.0000,    0.1250,1478626610.288
   -2.6250,    0.4375,    0.8750,1478626610.309
   -4.7500,    0.5000,    0.5000,1478626610.331
   -5.0000,   -0.7500,   -1.6875,1478626610.348
    0.8750,   -1.3750,   -2.6875,1478626610.369
    4.4375,   -1.2500,   -1.8750,1478626610.392
    7.0000,   -0.3750,   -1.1250,1478626610.408
    4.1875,    0.0000,   -1.4375,1478626610.431
    0.6875,   -0.1875,   -0.7500,1478626610.452
   -0.5000,    0.2500,   -1.5000,1478626610.470
    0.5625,   -0.2500,   -1.1250,1478626610.491
    2.8125,   -0.1250,   -1.2500,1478626610.512
    2.3750,    0.0625,   -0.9375,1478626610.528
   -1.0000,    0.0625,   -1.1875,1478626610.551
