  0.082520,  0.733887,  0.588379,1478545178.201
  0.084961,  0.689941,  0.601563,1478545178.231
  0.093262,  0.695313,  0.597656,1478545178.244
  0.087402,  0.706055,  0.594727,1478545178.262
  0.083984,  0.711426,  0.596191,1478545178.283
  0.091797,  0.708496,  0.595215,1478545178.306
  0.096680,  0.721191,  0.578613,1478545178.321
  0.099609,  0.730957,  0.580566,1478545178.352
  0.098145,  0.745605,  0.567383,1478545178.365
  0.092773,  0.725586,  0.566895,1478545178.382
  0.084961,  0.702148,  0.591797,1478545178.404
  0.090332,  0.703613,  0.597168,1478545178.425
  0.096680,  0.709961,  0.594238,1478545178.449
  0.091797,  0.704102,  0.587402,1478545178.464
  0.101074,  0.719727,  0.585938,1478545178.485
  0.091797,  0.718262,  0.575684,1478545178.509
  0.095215,  0.721680,  0.584473,1478545178.524
  0.094238,  0.713867,  0.592285,1478545178.545
  0.091797,  0.717285,  0.586426,1478545178.562
  0.093750,  0.711914,  0.594238,1478545178.584
  0.092285,  0.703613,  0.595703,1478545178.605
  0.085449,  0.702637,  0.595703,1478545178.628
  0.086914,  0.716309,  0.584961,1478545178.643
  0.089844,  0.711426,  0.585938,1478545178.666
  0.092773,  0.718262,  0.583008,1478545178.680
  0.091309,  0.721680,  0.583496,1478545178.703
  0.091309,  0.712402,  0.590820,1478545178.726
  0.094238,  0.711914,  0.584961,1478545178.741
  0.104004,  0.728516,  0.581543,1478545178.765
  0.088867,  0.723633,  0.582031,1478545178.786
  0.091797,  0.707520,  0.583984,1478545178.800
  0.092285,  0.712891,  0.587402,1478545178.823
  0.091309,  0.716797,  0.588379,1478545178.846
  0.095703,  0.729980,  0.575195,1478545178.861
  0.086426,  0.727051,  0.581543,1478545178.884
  0.088867,  0.719727,  0.583984,1478545178.912
  0.095215,  0.713867,  0.583496,1478545178.920
  0.089844,  0.715820,  0.578613,1478545178.944
  0.091797,  0.720215,  0.588379,1478545178.966
  0.099121,  0.716797,  0.583008,1478545178.980
  0.092773,  0.719727,  0.578613,1478545179.004
  0.088867,  0.725098,  0.583496,1478545179.026
  0.090820,  0.714844,  0.583496,1478545179.778
  0.089355,  0.709961,  0.585938,1478545179.778
  0.092773,  0.717285,  0.587891,1478545179.778
  0.093262,  0.717773,  0.583496,1478545179.778
  0.094727,  0.718262,  0.581055,1478545179.779
  0.087402,  0.720215,  0.587891,1478545179.779
  0.092773,  0.718750,  0.583496,1478545179.779
  0.093262,  0.726563,  0.583008,1478545179.780
  0.091309,  0.722656,  0.581543,1478545179.780
  0.093750,  0.714844,  0.576660,1478545179.780
  0.091797,  0.726563,  0.582520,1478545179.780
  0.092773,  0.718262,  0.579102,1478545179.780
  0.089844,  0.721680,  0.597656,1478545179.780
  0.102051,  0.710938,  0.563965,1478545179.780
  0.086914,  0.748047,  0.575195,1478545179.786
  0.080566,  0.721191,  0.582031,1478545179.786
  0.095215,  0.693359,  0.598145,1478545179.786
  0.089844,  0.705078,  0.595215,1478545179.786
  0.093262,  0.719727,  0.579590,1478545179.786
  0.094727,  0.724121,  0.585938,1478545179.786
  0.089844,  0.714355,  0.583008,1478545179.786
  0.087891,  0.725586,  0.582520,1478545179.786
  0.093750,  0.731934,  0.582031,1478545179.786
  0.091797,  0.718750,  0.579102,1478545179.787
  0.086914,  0.717773,  0.584473,1478545179.787
  0.087402,  0.711914,  0.583008,1478545179.787
  0.086914,  0.715332,  0.575684,1478545179.787
  0.094727,  0.716797,  0.583008,1478545179.787
  0.090820,  0.721680,  0.583984,1478545179.789
  0.097656,  0.715332,  0.575684,1478545179.789
  0.094238,  0.714355,  0.584961,1478545179.789
  0.092285,  0.727051,  0.573242,1478545179.789
  0.092773,  0.733887,  0.570313,1478545179.790
  0.095703,  0.731934,  0.574707,1478545179.790
  0.088867,  0.722656,  0.568359,1478545179.790
  0.090820,  0.719238,  0.583008,1478545179.790
  0.097168,  0.720215,  0.583984,1478545179.790
  0.090820,  0.718262,  0.579102,1478545179.790
  0.098145,  0.728027,  0.574707,1478545179.790
  0.092285,  0.729004,  0.574219,1478545179.811
  0.097656,  0.716797,  0.582031,1478545179.835
  0.093262,  0.715332,  0.580566,1478545179.850
  0.091797,  0.723145,  0.579590,1478545179.871
  0.096191,  0.730469,  0.566895,1478545179.894
  0.096191,  0.727539,  0.579590,1478545179.909
  0.091309,  0.717773,  0.571777,1478545179.932
  0.087402,  0.719727,  0.579102,1478545179.949
  0.094727,  0.716797,  0.577637,1478545179.972
  0.088867,  0.725098,  0.577637,1478545179.992
  0.092285,  0.724121,  0.577637,1478545180.023
  0.089355,  0.720215,  0.573242,1478545180.029
  0.087891,  0.722168,  0.583984,1478545180.052
  0.096191,  0.732910,  0.573242,1478545180.069
  0.096191,  0.728516,  0.569336,1478545180.089
  0.093750,  0.726074,  0.573730,1478545180.112
  0.098145,  0.713867,  0.561035,1478545180.129
  0.097656,  0.739258,  0.555176,1478545180.149
  0.093262,  0.754883,  0.558594,1478545180.173
  0.099121,  0.744629,  0.556152,1478545180.189
  0.097656,  0.729004,  0.565918,1478545180.210
  0.102539,  0.728027,  0.561523,1478545180.248
  0.098633,  0.741211,  0.565430,1478545180.251
  0.094727,  0.731934,  0.555176,1478545180.270
  0.082031,  0.726563,  0.565918,1478545180.302
  0.080078,  0.722168,  0.572754,1478545180.309
  0.095215,  0.728027,  0.562988,1478545180.330
  0.092773,  0.745117,  0.553223,1478545180.351
  0.095703,  0.750488,  0.551758,1478545180.369
  0.100098,  0.740723,  0.549805,1478545180.390
  0.092285,  0.743164,  0.557129,1478545180.412
  0.095215,  0.736328,  0.567383,1478545180.437
  0.090332,  0.729492,  0.560547,1478545180.452
  0.088379,  0.735840,  0.564941,1478545180.480
  0.086426,  0.736816,  0.573242,1478545180.489
  0.089355,  0.731934,  0.567383,1478545180.510
  0.091309,  0.723145,  0.562012,1478545180.532
  0.097656,  0.726074,  0.558594,1478545180.549
  0.097168,  0.737793,  0.556641,1478545180.572
  0.097168,  0.740234,  0.559082,1478545180.592
  0.094727,  0.741211,  0.550781,1478545180.609
  0.090332,  0.738770,  0.557129,1478545180.632
  0.085938,  0.743652,  0.565430,1478545180.651
  0.087402,  0.727051,  0.571777,1478545180.669
  0.085449,  0.715820,  0.583008,1478545180.692
  0.091797,  0.724609,  0.555176,1478545180.714
  0.094727,  0.752930,  0.547363,1478545180.729
  0.091309,  0.751953,  0.558105,1478545180.759
  0.102051,  0.742676,  0.551758,1478545180.771
  0.089355,  0.737305,  0.562988,1478545180.789
  0.086914,  0.728516,  0.571777,1478545180.812
  0.094238,  0.729492,  0.582031,1478545180.831
  0.089844,  0.741699,  0.548828,1478545180.850
  0.096680,  0.746094,  0.539551,1478545180.872
  0.091309,  0.757813,  0.560059,1478545180.893
  0.094238,  0.729980,  0.581055,1478545180.909
  0.088867,  0.727539,  0.573730,1478545180.932
  0.092773,  0.716797,  0.571289,1478545180.959
  0.095215,  0.723145,  0.576660,1478545180.970
  0.083008,  0.733398,  0.565918,1478545180.992
  0.078613,  0.753418,  0.562500,1478545181.012
  0.092773,  0.753906,  0.574219,1478545181.037
  0.098633,  0.739746,  0.561523,1478545181.052
  0.104492,  0.705566,  0.561035,1478545181.079
  0.080078,  0.706543,  0.581543,1478545181.089
  0.066895,  0.710449,  0.599121,1478545181.111
  0.090332,  0.689453,  0.603516,1478545181.132
  0.094238,  0.704102,  0.592285,1478545181.149
  0.083008,  0.719238,  0.577637,1478545181.172
  0.090820,  0.726563,  0.565430,1478545181.192
  0.089844,  0.733887,  0.567871,1478545181.208
  0.086914,  0.718750,  0.581055,1478545181.238
  0.089844,  0.715332,  0.586914,1478545181.252
  0.091309,  0.708496,  0.584473,1478545181.268
  0.089844,  0.707520,  0.591797,1478545181.291
  0.090332,  0.714844,  0.584961,1478545181.313
  0.096680,  0.738770,  0.584961,1478545181.328
  0.093750,  0.732422,  0.573730,1478545181.358
  0.091309,  0.719727,  0.578613,1478545181.372
  0.088867,  0.713379,  0.586914,1478545181.388
  0.092285,  0.717773,  0.587402,1478545181.411
  0.094238,  0.711426,  0.583496,1478545181.432
  0.096191,  0.713867,  0.583984,1478545181.449
  0.086914,  0.713867,  0.591309,1478545181.471
  0.098145,  0.718262,  0.583008,1478545181.501
  0.091797,  0.726563,  0.581543,1478545181.515
  0.099609,  0.713867,  0.579590,1478545181.531
  0.098145,  0.722656,  0.586426,1478545181.562
  0.091309,  0.724609,  0.575684,1478545181.569
  0.095215,  0.715820,  0.587402,1478545181.591
  0.089355,  0.713379,  0.585449,1478545181.614
  0.088867,  0.711914,  0.584473,1478545181.637
  0.095215,  0.715332,  0.581543,1478545181.651
  0.090332,  0.717773,  0.587402,1478545181.682
  0.100098,  0.722168,  0.576660,1478545181.694
  0.095215,  0.720215,  0.581543,1478545181.711
  0.096680,  0.720703,  0.580566,1478545181.734
  0.091309,  0.724609,  0.578125,1478545181.748
  0.092773,  0.724609,  0.585938,1478545181.771
  0.089844,  0.723633,  0.574707,1478545181.793
  0.101563,  0.729004,  0.568848,1478545181.808
  0.101074,  0.726563,  0.574707,1478545181.838
  0.097656,  0.725098,  0.571777,1478545181.853
  0.093262,  0.721191,  0.573730,1478545181.868
  0.096680,  0.717285,  0.573242,1478545181.891
  0.093750,  0.727539,  0.576172,1478545181.913
  0.094238,  0.721191,  0.574219,1478545181.928
  0.093262,  0.722656,  0.573730,1478545181.966
  0.093262,  0.723633,  0.579102,1478545181.973
  0.090332,  0.729004,  0.580566,1478545181.995
  0.099609,  0.718750,  0.575684,1478545182.011
  0.099609,  0.719727,  0.570313,1478545182.034
  0.096191,  0.718750,  0.578613,1478545182.055
  0.103027,  0.732910,  0.566895,1478545182.071
  0.096191,  0.722656,  0.571777,1478545182.100
  0.091309,  0.717285,  0.575195,1478545182.116
  0.096680,  0.723633,  0.579102,1478545182.131
  0.099121,  0.725098,  0.575195,1478545182.153
  0.102051,  0.715820,  0.582520,1478545182.174
  0.092773,  0.716797,  0.578125,1478545182.193
  0.092773,  0.720215,  0.580566,1478545182.213
  0.091309,  0.731445,  0.582520,1478545182.236
  0.095215,  0.725098,  0.571777,1478545182.251
  0.094238,  0.711914,  0.578125,1478545182.273
  0.097168,  0.722168,  0.586426,1478545182.294
  0.093750,  0.730957,  0.581055,1478545182.311
  0.097168,  0.722656,  0.577148,1478545182.333
  0.100586,  0.711914,  0.579590,1478545182.355
  0.094727,  0.723145,  0.575684,1478545182.371
  0.093750,  0.724121,  0.579590,1478545182.393
  0.092285,  0.716797,  0.575684,1478545182.423
  0.095703,  0.712891,  0.584961,1478545182.431
  0.098633,  0.717285,  0.582031,1478545182.467
  0.095703,  0.716309,  0.577637,1478545182.477
  0.086426,  0.719238,  0.589844,1478545182.491
  0.095215,  0.734375,  0.568359,1478545182.515
  0.093750,  0.718262,  0.578125,1478545182.536
  0.097656,  0.713379,  0.605957,1478545182.551
  0.093750,  0.714355,  0.604004,1478545182.574
  0.100098,  0.697266,  0.585938,1478545182.596
  0.096680,  0.688965,  0.577148,1478545182.610
  0.086914,  0.770996,  0.564453,1478545182.634
  0.083008,  0.790527,  0.501953,1478545182.657
  0.048828,  0.756348,  0.599609,1478545182.677
  0.102051,  0.691406,  0.616699,1478545182.695
  0.137207,  0.637207,  0.599609,1478545182.716
  0.081543,  0.693848,  0.590332,1478545182.745
  0.087891,  0.751953,  0.576172,1478545182.754
  0.094727,  0.766113,  0.561035,1478545182.776
  0.091797,  0.727051,  0.547363,1478545182.792
  0.090332,  0.721680,  0.572754,1478545182.813
  0.087891,  0.729980,  0.583008,1478545182.836
  0.076172,  0.754395,  0.579102,1478545182.850
  0.094727,  0.779785,  0.574219,1478545182.873
  0.090820,  0.751465,  0.559082,1478545182.896
  0.083984,  0.758789,  0.604004,1478545182.910
  0.071777,  0.805664,  0.643555,1478545182.933
  0.053223,  0.789551,  0.663086,1478545182.956
  0.068359,  0.688477,  0.653809,1478545182.978
  0.107422,  0.633301,  0.654785,1478545182.992
  0.041504,  0.701172,  0.632324,1478545183.024
 -0.022949,  0.770508,  0.596191,1478545183.037
 -0.068848,  0.822754,  0.569336,1478545183.054
 -0.108398,  0.843750,  0.558594,1478545183.079
 -0.125488,  0.782227,  0.568848,1478545183.097
 -0.197266,  0.821289,  0.617188,1478545183.129
 -0.286621,  0.853027,  0.555176,1478545183.136
 -0.070313,  0.747070,  0.561035,1478545183.157
 -0.032227,  0.701660,  0.556641,1478545183.181
  0.001953,  0.732910,  0.564941,1478545183.196
  0.041992,  0.720215,  0.574219,1478545183.225
  0.028809,  0.721680,  0.598145,1478545183.233
  0.028809,  0.723633,  0.628906,1478545183.256
  0.006836,  0.688477,  0.645508,1478545183.277
  0.012695,  0.642578,  0.654297,1478545183.293
  0.037109,  0.494629,  0.643555,1478545183.316
  0.020508,  0.485840,  0.757324,1478545183.337
 -0.041504,  0.585449,  0.804199,1478545183.353
 -0.096191,  0.589355,  0.804688,1478545183.376
 -0.039063,  0.459473,  0.725098,1478545183.398
  0.120117,  0.321289,  0.688965,1478545183.413
  0.125488,  0.369629,  0.711426,1478545183.436
 -0.003418,  0.422852,  0.771484,1478545183.458
 -0.059082,  0.412598,  0.791016,1478545183.473
  0.002930,  0.424805,  0.784180,1478545183.503
 -0.028809,  0.458984,  0.795898,1478545183.519
 -0.034668,  0.452148,  0.804199,1478545183.539
 -0.010254,  0.447754,  0.801270,1478545183.556
 -0.001465,  0.421875,  0.776367,1478545183.579
  0.034180,  0.426758,  0.768066,1478545183.593
  0.004883,  0.475098,  0.801270,1478545183.617
 -0.087891,  0.538086,  0.888672,1478545183.639
 -0.151367,  0.608398,  0.931641,1478545183.660
 -0.061523,  0.610840,  0.891602,1478545183.705
  0.040039,  0.475098,  0.854492,1478545183.716
  0.104004,  0.347656,  0.858398,1478545183.737
  0.148926,  0.349121,  0.847168,1478545183.742
  0.123047,  0.400391,  0.818848,1478545183.765
  0.124512,  0.458984,  0.808594,1478545183.781
  0.046387,  0.512695,  0.854004,1478545183.796
  0.030762,  0.504395,  0.892578,1478545183.819
  0.089355,  0.431641,  0.784668,1478545183.840
  0.292480,  0.353027,  0.629883,1478545183.856
  0.337402,  0.355957,  0.635742,1478545183.878
  0.176758,  0.426270,  0.712891,1478545183.909
  0.032227,  0.553711,  0.772461,1478545183.916
  0.038574,  0.619629,  0.800781,1478545183.938
  0.121094,  0.606445,  0.811035,1478545183.959
  0.218750,  0.514648,  0.755371,1478545183.976
  0.297363,  0.540527,  0.706543,1478545183.998
  0.244629,  0.507324,  0.700195,1478545184.020
  0.208496,  0.184570,  0.489258,1478545184.036
  0.333984,  0.072266,  0.160156,1478545184.058
  0.352051,  0.287109, -0.085449,1478545184.080
  0.355957,  0.910156, -0.251465,1478545184.096
  0.392578,  1.194824, -0.437012,1478545184.119
  0.381836,  1.304199, -0.375977,1478545184.140
  0.403809,  1.281738, -0.352051,1478545184.155
  0.385742,  1.122559, -0.331543,1478545184.179
  0.309082,  0.902832, -0.162109,1478545184.200
  0.299805,  0.792969, -0.039551,1478545184.215
  0.341797,  0.797852, -0.053223,1478545184.239
  0.372559,  0.932129, -0.105957,1478545184.260
  0.370117,  1.032715, -0.162598,1478545184.290
  0.346680,  1.018066, -0.192871,1478545184.298
  0.333008,  0.914551, -0.164551,1478545184.321
  0.310547,  0.864258, -0.145508,1478545184.335
  0.308105,  0.887695, -0.134277,1478545184.358
  0.324219,  0.917480, -0.124512,1478545184.381
  0.334473,  0.929688, -0.121582,1478545184.395
  0.338379,  0.927246, -0.130371,1478545184.418
  0.342773,  0.917969, -0.131836,1478545184.441
  0.341797,  0.906250, -0.112793,1478545184.462
  0.328125,  0.898438, -0.111328,1478545184.478
  0.336426,  0.916992, -0.114746,1478545184.501
  0.340820,  0.915039, -0.130859,1478545184.515
  0.348633,  0.900879, -0.135742,1478545184.538
  0.353516,  0.888672, -0.137695,1478545184.568
  0.349121,  0.877441, -0.135254,1478545184.575
  0.345215,  0.888184, -0.128906,1478545184.599
  0.347168,  0.890137, -0.124023,1478545184.621
  0.355469,  0.882324, -0.132813,1478545184.635
  0.363770,  0.897461, -0.149414,1478545184.659
  0.359375,  0.907715, -0.161621,1478545184.681
  0.363281,  0.892090, -0.151367,1478545184.695
  0.359863,  0.894043, -0.139648,1478545184.718
  0.359375,  0.911621, -0.148438,1478545184.741
  0.359863,  0.916992, -0.152832,1478545184.747
  0.366211,  0.900879, -0.135254,1478545184.763
  0.365723,  0.906250, -0.136230,1478545184.785
  0.363770,  0.906250, -0.140137,1478545184.807
  0.369141,  0.901855, -0.140137,1478545184.829
  0.366699,  0.905273, -0.143066,1478545184.847
  0.356934,  0.918457, -0.154785,1478545184.869
  0.349121,  0.915039, -0.148926,1478545184.890
  0.358398,  0.902344, -0.151855,1478545184.904
  0.344727,  0.901855, -0.147949,1478545184.926
  0.334473,  0.902832, -0.152832,1478545184.943
  0.343262,  0.907227, -0.155273,1478545184.964
  0.337891,  0.912109, -0.166992,1478545184.986
  0.333496,  0.912109, -0.167969,1478545185.003
  0.334961,  0.912598, -0.150879,1478545185.024
  0.338379,  0.908203, -0.156250,1478545185.046
  0.342285,  0.911621, -0.151367,1478545185.063
  0.342285,  0.915039, -0.153809,1478545185.084
  0.334473,  0.904785, -0.137207,1478545185.106
  0.335938,  0.895020, -0.127441,1478545185.124
  0.339844,  0.893066, -0.133301,1478545185.147
  0.332520,  0.910645, -0.135742,1478545185.170
  0.338867,  0.905762, -0.145508,1478545185.183
  0.346680,  0.894043, -0.136719,1478545185.212
  0.336914,  0.895020, -0.145020,1478545185.227
  0.344727,  0.910156, -0.147461,1478545185.244
  0.345215,  0.902344, -0.129883,1478545185.264
  0.346680,  0.897461, -0.131348,1478545185.287
  0.343262,  0.886719, -0.130859,1478545185.304
  0.363281,  0.917969, -0.154785,1478545185.324
  0.367188,  0.928711, -0.163574,1478545185.346
  0.359375,  0.918945, -0.161133,1478545185.364
  0.359863,  0.907715, -0.157715,1478545185.384
  0.357910,  0.902832, -0.146973,1478545185.406
  0.362793,  0.896484, -0.145508,1478545185.424
  0.355957,  0.908691, -0.147949,1478545185.447
  0.363281,  0.922363, -0.145508,1478545185.466
  0.362793,  0.914063, -0.146484,1478545185.484
  0.366211,  0.928711, -0.157715,1478545185.504
  0.366699,  0.931152, -0.150391,1478545185.526
  0.366699,  0.937500, -0.155762,1478545185.544
  0.370605,  0.975586, -0.206543,1478545185.564
  0.354004,  0.987793, -0.206055,1478545185.586
  0.356934,  0.947266, -0.166016,1478545185.604
  0.341309,  0.916016, -0.102539,1478545185.624
  0.339355,  0.887695, -0.056641,1478545185.647
  0.344238,  0.838379, -0.023438,1478545185.664
  0.365723,  0.766602,  0.060059,1478545185.685
  0.373047,  0.725586,  0.125977,1478545185.709
  0.354492,  0.678711,  0.236328,1478545185.724
  0.314453,  0.772949,  0.420898,1478545185.744
  0.256836,  0.879395,  0.541016,1478545185.769
  0.218262,  0.827148,  0.565918,1478545185.792
  0.287109,  0.691406,  0.596680,1478545185.804
  0.360840,  0.494141,  0.596680,1478545185.827
  0.326660,  0.396973,  0.676270,1478545185.849
  0.290527,  0.388672,  0.767578,1478545185.866
  0.252930,  0.427246,  0.757324,1478545185.888
  0.291504,  0.416504,  0.708008,1478545185.904
  0.246094,  0.301270,  0.874023,1478545185.931
  0.167480,  0.425781,  0.842773,1478545185.954
  0.206543,  0.527832,  0.826660,1478545185.964
  0.099609,  0.511719,  0.799805,1478545185.985
  0.169434,  0.378418,  0.765625,1478545186.006
  0.259766,  0.301270,  0.777344,1478545186.024
  0.191406,  0.395996,  0.841309,1478545186.045
  0.165527,  0.499512,  0.812988,1478545186.066
  0.183594,  0.531738,  0.809082,1478545186.084
  0.197266,  0.477051,  0.806152,1478545186.105
  0.223145,  0.423828,  0.796875,1478545186.126
  0.224121,  0.449219,  0.797852,1478545186.144
  0.207031,  0.483398,  0.787109,1478545186.165
  0.209473,  0.477539,  0.792480,1478545186.187
  0.202148,  0.465332,  0.788574,1478545186.204
  0.206055,  0.466797,  0.774414,1478545186.234
  0.209961,  0.463379,  0.781250,1478545186.246
  0.205566,  0.460449,  0.773926,1478545186.264
  0.203125,  0.452637,  0.779297,1478545186.287
  0.211426,  0.443848,  0.781250,1478545186.307
  0.211914,  0.439941,  0.773438,1478545186.324
  0.214355,  0.451172,  0.770508,1478545186.347
  0.222656,  0.444336,  0.773926,1478545186.366
  0.218750,  0.450195,  0.776855,1478545186.392
  0.214355,  0.465332,  0.772461,1478545186.407
  0.216797,  0.461426,  0.778320,1478545186.426
  0.217285,  0.458008,  0.780273,1478545186.444
  0.229492,  0.467773,  0.774902,1478545186.467
  0.224609,  0.469727,  0.773438,1478545186.487
  0.208008,  0.491699,  0.792480,1478545186.511
  0.193848,  0.476074,  0.789063,1478545186.526
  0.228516,  0.435059,  0.783203,1478545186.554
  0.250000,  0.465820,  0.771973,1478545186.563
  0.223145,  0.529785,  0.779785,1478545186.592
  0.208496,  0.512207,  0.771973,1478545186.607
  0.223633,  0.501953,  0.773926,1478545186.623
  0.239258,  0.485352,  0.761719,1478545186.646
  0.232910,  0.483887,  0.755859,1478545186.667
  0.237305,  0.492188,  0.768066,1478545186.684
  0.244141,  0.507324,  0.760254,1478545186.706
  0.244629,  0.501465,  0.757324,1478545186.727
  0.265137,  0.523438,  0.737793,1478545186.744
  0.268066,  0.532715,  0.718262,1478545186.766
  0.256836,  0.524902,  0.729492,1478545186.789
  0.271973,  0.525879,  0.744141,1478545186.803
  0.284668,  0.506836,  0.724121,1478545186.834
  0.255859,  0.597168,  0.792480,1478545186.850
  0.197754,  0.898926,  0.975098,1478545186.864
  0.074219,  0.862793,  1.268555,1478545186.886
  0.245605, -0.147461,  1.230469,1478545186.914
  0.688965, -0.691895,  0.954590,1478545186.924
  0.587891, -1.807617, -0.761230,1478545186.946
  0.778320, -0.395508, -1.383301,1478545186.968
 -0.625977,  5.506836, -2.980469,1478545186.983
  1.150879,  1.724609, -0.479004,1478545187.006
  0.997070,  0.757813,  0.140137,1478545187.027
 -0.010254,  0.328125,  0.034180,1478545187.043
  0.361328, -0.207031,  0.145020,1478545187.067
  0.366699,  0.436523,  0.021973,1478545187.096
  0.352539,  1.124023, -0.136719,1478545187.112
  0.641113,  1.203613, -0.200195,1478545187.127
  0.391113,  1.132324, -0.125488,1478545187.155
  0.401367,  0.958008, -0.081543,1478545187.165
  0.478516,  0.737793, -0.012695,1478545187.192
  0.468262,  0.651855,  0.083008,1478545187.209
  0.448730,  0.722656,  0.041016,1478545187.223
  0.437012,  0.869629, -0.015625,1478545187.248
  0.455566,  0.953125, -0.079102,1478545187.276
  0.455078,  0.954102, -0.088379,1478545187.289
  0.432129,  0.895508, -0.070313,1478545187.306
  0.419922,  0.867188, -0.073242,1478545187.329
  0.420898,  0.883301, -0.073730,1478545187.350
  0.420898,  0.914063, -0.086914,1478545187.366
  0.425781,  0.906738, -0.082520,1478545187.388
  0.429688,  0.880859, -0.065918,1478545187.403
  0.424805,  0.848633, -0.062500,1478545187.433
  0.427734,  0.866211, -0.070801,1478545187.455
  0.431641,  0.883789, -0.066895,1478545187.463
  0.437988,  0.895996, -0.084473,1478545187.487
  0.441895,  0.886230, -0.068848,1478545187.516
  0.446777,  0.874512, -0.071289,1478545187.523
  0.441895,  0.858887, -0.066406,1478545187.553
  0.441895,  0.865723, -0.062012,1478545187.574
  0.437988,  0.887695, -0.062988,1478545187.583
  0.432129,  0.877930, -0.067871,1478545187.606
  0.434082,  0.852539, -0.062988,1478545187.628
  0.433594,  0.841309, -0.054199,1478545187.643
  0.433594,  0.828125, -0.045898,1478545187.672
  0.426270,  0.863281, -0.061035,1478545187.696
  0.432617,  0.910156, -0.062988,1478545187.711
  0.445801,  0.900391, -0.067871,1478545187.726
  0.448730,  0.866211, -0.047852,1478545187.749
  0.448242,  0.844238, -0.039551,1478545187.769
  0.442383,  0.854980, -0.027832,1478545187.794
  0.447754,  0.880859, -0.045898,1478545187.809
  0.442383,  0.861816, -0.048340,1478545187.831
  0.452148,  0.846191, -0.055176,1478545187.847
  0.447266,  0.835938, -0.061523,1478545187.876
  0.438477,  0.856934, -0.040527,1478545187.897
  0.449707,  0.868164, -0.037109,1478545187.906
  0.432617,  0.883301, -0.021973,1478545187.929
  0.425781,  0.875488, -0.019531,1478545187.949
  0.437988,  0.852051, -0.036621,1478545187.966
  0.442871,  0.842773, -0.033691,1478545187.988
  0.436035,  0.843750, -0.029297,1478545188.009
  0.438477,  0.885254, -0.052734,1478545188.026
  0.437988,  0.910156, -0.058594,1478545188.056
  0.441406,  0.910645, -0.063477,1478545188.069
  0.440918,  0.894531, -0.057617,1478545188.087
  0.437012,  0.872559, -0.047363,1478545188.108
  0.429688,  0.871582, -0.045898,1478545188.152
  0.431152,  0.890625, -0.051270,1478545188.163
  0.430176,  0.887695, -0.060547,1478545188.199
  0.424316,  0.885254, -0.054688,1478545188.206
  0.431641,  0.858887, -0.025391,1478545188.208
  0.434570,  0.825684, -0.007324,1478545188.245
  0.428711,  0.813965,  0.005371,1478545188.251
  0.419922,  0.821777,  0.013672,1478545188.290
  0.415039,  0.857910,  0.011230,1478545188.295
  0.422363,  0.878418, -0.005859,1478545188.311
  0.423828,  0.897949, -0.018555,1478545188.335
  0.427734,  0.906250, -0.020020,1478545188.348
  0.435059,  0.892090, -0.018555,1478545188.387
  0.425781,  0.866699, -0.019531,1478545188.392
  0.425293,  0.861816, -0.009766,1478545188.432
  0.426758,  0.874023, -0.010742,1478545188.437
  0.423828,  0.874512, -0.013672,1478545188.477
  0.417480,  0.887207, -0.023926,1478545188.479
  0.427734,  0.890625, -0.018555,1478545188.529
  0.419922,  0.874023, -0.011719,1478545188.531
  0.413574,  0.877930, -0.019043,1478545188.569
  0.415039,  0.898438, -0.009277,1478545188.575
  0.427246,  0.881836, -0.012207,1478545188.590
  0.427246,  0.862305, -0.002930,1478545188.613
  0.430176,  0.860840, -0.010254,1478545188.632
  0.432617,  0.869141, -0.015137,1478545188.664
  0.433105,  0.880859, -0.012207,1478545188.672
  0.432129,  0.876465, -0.005859,1478545188.710
  0.427246,  0.856445,  0.000488,1478545188.714
  0.422852,  0.843262, -0.000977,1478545188.737
  0.419434,  0.865723, -0.006836,1478545188.755
  0.419434,  0.875000, -0.004883,1478545188.777
  0.422363,  0.880859,  0.000488,1478545188.799
  0.415039,  0.860840, -0.005859,1478545188.820
  0.418457,  0.864746, -0.014648,1478545188.844
  0.417969,  0.894043, -0.020020,1478545188.851
  0.424316,  0.910645, -0.035156,1478545188.872
  0.426758,  0.905762, -0.021973,1478545188.888
  0.426758,  0.880371, -0.014160,1478545188.911
  0.423340,  0.862305, -0.006348,1478545188.940
  0.426758,  0.865234, -0.014160,1478545188.948
  0.425293,  0.869629, -0.015625,1478545188.987
  0.430176,  0.884277, -0.021484,1478545188.992
  0.429688,  0.889648, -0.016602,1478545189.009
  0.428711,  0.873535, -0.015137,1478545189.031
  0.428711,  0.854492, -0.013184,1478545189.053
  0.420898,  0.861816, -0.005859,1478545189.076
  0.419434,  0.873535, -0.022949,1478545189.099
  0.428711,  0.883301, -0.021484,1478545189.121
  0.420410,  0.887207, -0.021973,1478545189.130
  0.424805,  0.879395, -0.021484,1478545189.151
  0.426758,  0.869141, -0.018555,1478545189.173
  0.417480,  0.872559, -0.017578,1478545189.187
  0.420410,  0.876465, -0.025391,1478545189.218
  0.420898,  0.876465, -0.019043,1478545189.233
  0.426758,  0.878418, -0.018555,1478545189.248
  0.424805,  0.873535, -0.022461,1478545189.271
  0.418945,  0.875488, -0.020020,1478545189.294
  0.423828,  0.876953, -0.018555,1478545189.309
  0.418945,  0.879883, -0.019531,1478545189.333
  0.418945,  0.874023, -0.015625,1478545189.362
  0.419434,  0.875000, -0.017578,1478545189.375
  0.426270,  0.875000, -0.021484,1478545189.398
  0.421875,  0.875488, -0.016113,1478545189.413
  0.428223,  0.881836, -0.022461,1478545189.428
  0.422363,  0.877441, -0.026855,1478545189.451
  0.424805,  0.876953, -0.018066,1478545189.473
  0.426758,  0.872070, -0.018066,1478545189.503
  0.412109,  0.871582, -0.012207,1478545189.518
  0.419434,  0.871582, -0.015137,1478545189.541
  0.417480,  0.874512, -0.023438,1478545189.548
  0.430176,  0.877930, -0.017578,1478545189.571
  0.432129,  0.872070, -0.026367,1478545189.593
  0.423828,  0.875000, -0.013184,1478545189.614
  0.423340,  0.872559, -0.015137,1478545189.631
  0.433105,  0.876465, -0.012207,1478545189.653
  0.430664,  0.873047, -0.019531,1478545189.676
  0.435059,  0.863770, -0.020996,1478545189.691
  0.429199,  0.855957, -0.025879,1478545189.713
  0.426270,  0.868164, -0.033691,1478545189.734
  0.434082,  0.876465, -0.039551,1478545189.751
  0.435547,  0.878418, -0.033691,1478545189.773
  0.426270,  0.872070, -0.037598,1478545189.795
  0.433594,  0.862305, -0.036133,1478545189.811
  0.431641,  0.859863, -0.030273,1478545189.841
  0.435059,  0.865234, -0.028809,1478545189.855
  0.426758,  0.866699, -0.031738,1478545189.871
  0.432129,  0.868652, -0.027344,1478545189.894
  0.428223,  0.864746, -0.028320,1478545189.915
  0.425781,  0.863281, -0.026367,1478545189.931
  0.427734,  0.873047, -0.019531,1478545189.954
  0.425293,  0.879883, -0.022949,1478545189.975
  0.422363,  0.879883, -0.022461,1478545189.998
  0.423828,  0.880859, -0.019531,1478545190.013
  0.423828,  0.879883, -0.027344,1478545190.036
  0.424805,  0.874512, -0.025391,1478545190.051
  0.426270,  0.876465, -0.021484,1478545190.074
  0.424316,  0.881836, -0.025879,1478545190.102
  0.419922,  0.882324, -0.033203,1478545190.118
  0.426758,  0.872070, -0.024414,1478545190.141
  0.426758,  0.878418, -0.026367,1478545190.143
  0.426270,  0.878418, -0.025879,1478545190.164
  0.426270,  0.874512, -0.026855,1478545190.178
  0.430176,  0.875977, -0.024414,1478545190.208
  0.427246,  0.872070, -0.025879,1478545190.221
  0.425781,  0.869629, -0.023926,1478545190.236
  0.423340,  0.863281, -0.027832,1478545190.259
  0.424316,  0.876953, -0.031250,1478545190.281
  0.421387,  0.881348, -0.032227,1478545190.296
  0.421875,  0.874512, -0.036133,1478545190.326
  0.421387,  0.867676, -0.025879,1478545190.342
  0.425293,  0.869141, -0.035645,1478545190.356
  0.425293,  0.876465, -0.026855,1478545190.379
  0.425293,  0.875000, -0.029297,1478545190.401
  0.424805,  0.880371, -0.025879,1478545190.416
  0.429199,  0.879395, -0.028320,1478545190.442
  0.425293,  0.868652, -0.025879,1478545190.461
  0.420898,  0.864258, -0.020508,1478545190.484
  0.425293,  0.878418, -0.026855,1478545190.506
  0.420898,  0.875977, -0.023926,1478545190.521
  0.431641,  0.875000, -0.026855,1478545190.536
  0.432617,  0.874512, -0.024414,1478545190.559
  0.432617,  0.870605, -0.020996,1478545190.581
  0.429199,  0.872559, -0.025391,1478545190.605
  0.429688,  0.881348, -0.031738,1478545190.619
  0.428223,  0.874512, -0.021973,1478545190.641
  0.434082,  0.853027, -0.042969,1478545190.658
  0.421387,  0.850098, -0.020508,1478545190.679
  0.427246,  0.849121, -0.014160,1478545190.701
  0.447754,  0.889648,  0.021484,1478545190.719
  0.488281,  0.950684,  0.011230,1478545190.739
  0.313965,  0.931641,  0.069336,1478545190.764
  0.407715,  0.870117, -0.124512,1478545190.784
  0.482910,  0.886719, -0.051270,1478545190.799
  0.481445,  0.977051, -0.007324,1478545190.831
  0.417969,  0.872559,  0.027832,1478545190.838
  0.376953,  0.745605,  0.065918,1478545190.868
  0.418457,  0.753418,  0.068359,1478545190.882
  0.435059,  0.805664,  0.045410,1478545190.916
  0.413086,  0.933594,  0.035645,1478545190.923
  0.400879,  0.919922,  0.022949,1478545190.958
  0.429199,  0.857422,  0.036621,1478545190.967
  0.423828,  0.777344,  0.008789,1478545191.012
  0.434082,  0.847656,  0.008789,1478545191.018
  0.417969,  0.898926,  0.005371,1478545191.021
  0.427246,  0.931641, -0.006836,1478545191.065
  0.438477,  0.912109, -0.015625,1478545191.069
  0.438965,  0.845215, -0.000488,1478545191.103
  0.416504,  0.826172,  0.028809,1478545191.108
  0.395996,  0.796875,  0.066895,1478545191.138
  0.411133,  0.887695,  0.057617,1478545191.155
  0.467773,  0.880371, -0.038086,1478545191.159
  0.487793,  0.928711, -0.048828,1478545191.199
  0.419922,  0.884277, -0.021973,1478545191.201
  0.408203,  0.839844,  0.028320,1478545191.235
  0.416504,  0.836426,  0.037109,1478545191.249
  0.440918,  0.864258,  0.042480,1478545191.259
  0.426758,  0.879395,  0.026855,1478545191.279
  0.438477,  0.865234,  0.014648,1478545191.301
  0.439453,  0.852539,  0.015625,1478545191.324
  0.426758,  0.866211,  0.030273,1478545191.365
  0.421875,  0.883301,  0.021484,1478545191.366
  0.436523,  0.884277,  0.025391,1478545191.387
  0.427734,  0.872070,  0.027344,1478545191.400
  0.420898,  0.864746,  0.020020,1478545191.440
  0.417480,  0.864258,  0.017090,1478545191.444
  0.424316,  0.867188,  0.009277,1478545191.484
  0.420410,  0.874023,  0.016602,1478545191.486
  0.424805,  0.871094,  0.003418,1478545191.514
  0.421875,  0.878906, -0.001465,1478545191.528
  0.423828,  0.881348,  0.005371,1478545191.537
  0.426270,  0.876953,  0.000488,1478545191.561
  0.428711,  0.863281,  0.010254,1478545191.580
  0.425781,  0.865723,  0.004883,1478545191.601
  0.425781,  0.867676,  0.006348,1478545191.620
  0.425781,  0.865723,  0.011719,1478545191.665
  0.430664,  0.869141,  0.013184,1478545191.669
  0.430664,  0.867676,  0.000488,1478545191.694
  0.432129,  0.863770,  0.003906,1478545191.716
  0.434570,  0.867188,  0.009277,1478545191.718
  0.426758,  0.875977,  0.002930,1478545191.764
  0.429199,  0.880371,  0.002441,1478545191.768
  0.424316,  0.878906,  0.006836,1478545191.806
  0.427246,  0.867188,  0.008301,1478545191.808
  0.433105,  0.868164,  0.007813,1478545191.851
  0.428711,  0.877441,  0.008789,1478545191.853
  0.430664,  0.876953,  0.011230,1478545191.859
  0.426758,  0.872070,  0.015137,1478545191.887
  0.420898,  0.867676,  0.004883,1478545191.898
  0.425293,  0.867676,  0.010254,1478545191.920
  0.423340,  0.863281,  0.005371,1478545191.941
  0.425293,  0.869141,  0.005859,1478545191.955
  0.425293,  0.873047,  0.011719,1478545191.994
  0.423828,  0.874512,  0.004395,1478545192.001
  0.420898,  0.875977,  0.004395,1478545192.040
  0.425781,  0.868652,  0.004883,1478545192.045
  0.423828,  0.869141,  0.012695,1478545192.068
  0.425293,  0.869141,  0.006836,1478545192.083
  0.422852,  0.874023,  0.006348,1478545192.115
  0.421875,  0.869629,  0.002930,1478545192.130
  0.427734,  0.872559,  0.007813,1478545192.135
  0.427734,  0.872070,  0.009766,1478545192.160
  0.432129,  0.873047,  0.008789,1478545192.181
  0.433105,  0.870605,  0.003906,1478545192.195
  0.426270,  0.875488,  0.007813,1478545192.218
  0.432129,  0.875488,  0.008789,1478545192.257
  0.422852,  0.875977,  0.005859,1478545192.271
  0.424316,  0.866211,  0.014160,1478545192.278
  0.424805,  0.865234,  0.015625,1478545192.301
  0.421387,  0.865234,  0.020020,1478545192.315
  0.420898,  0.873535,  0.017090,1478545192.346
  0.420898,  0.910156,  0.011230,1478545192.362
  0.435059,  0.935547, -0.035645,1478545192.407
  0.454102,  0.903809, -0.040527,1478545192.412
  0.446289,  0.906250, -0.031738,1478545192.452
  0.416016,  0.905762, -0.015625,1478545192.459
  0.418945,  0.896973, -0.019043,1478545192.497
  0.410156,  0.896973, -0.022461,1478545192.499
  0.425293,  0.842773,  0.074707,1478545192.505
  0.395996,  0.755371,  0.176758,1478545192.543
  0.383301,  0.669922,  0.229004,1478545192.548
  0.415527,  0.737305,  0.166992,1478545192.595
  0.421387,  0.886719,  0.098145,1478545192.639
  0.429688,  0.961914,  0.056152,1478545192.641
  0.432617,  0.973145,  0.061523,1478545192.685
  0.407715,  0.831055,  0.097168,1478545192.729
  0.413086,  0.832520,  0.066895,1478545192.773
  0.417969,  0.913574,  0.035156,1478545192.781
  0.413086,  0.869629,  0.083008,1478545192.829
  0.420898,  0.846191,  0.099609,1478545192.873
  0.414551,  0.827148,  0.106934,1478545192.917
  0.411621,  0.872559,  0.087402,1478545192.962
  0.418945,  0.882813,  0.077148,1478545193.007
  0.409668,  0.857910,  0.057129,1478545193.052
  0.414551,  0.872559,  0.061523,1478545193.059
  0.424805,  0.864258,  0.076172,1478545193.096
  0.415039,  0.872559,  0.075195,1478545193.105
  0.420410,  0.868164,  0.076172,1478545193.150
  0.418457,  0.873535,  0.056152,1478545193.194
  0.420898,  0.887695,  0.061035,1478545193.239
  0.415039,  0.863281,  0.067383,1478545193.284
  0.422363,  0.859863,  0.065430,1478545193.329
  0.421875,  0.871094,  0.055176,1478545193.331
  0.416504,  0.873047,  0.063477,1478545193.336
  0.421387,  0.870605,  0.058594,1478545193.382
  0.416504,  0.867676,  0.064453,1478545193.417
  0.416992,  0.863281,  0.067383,1478545193.474
  0.416016,  0.869629,  0.058105,1478545193.518
  0.414063,  0.871094,  0.063477,1478545193.561
  0.421875,  0.868652,  0.054199,1478545193.568
  0.416992,  0.864746,  0.065430,1478545193.608
  0.420898,  0.870117,  0.062012,1478545193.612
  0.422852,  0.872559,  0.065430,1478545193.652
  0.419922,  0.872559,  0.062988,1478545193.659
  0.415527,  0.872070,  0.065430,1478545193.704
  0.414063,  0.870605,  0.069336,1478545193.706
  0.414063,  0.868164,  0.063477,1478545193.750
  0.411133,  0.867188,  0.065430,1478545193.794
  0.415039,  0.868652,  0.058105,1478545193.800
  0.412109,  0.861328,  0.062500,1478545193.886
  0.409180,  0.866699,  0.066895,1478545193.891
  0.415527,  0.866211,  0.061035,1478545193.929
  0.417969,  0.871582,  0.069336,1478545193.982
  0.422363,  0.869629,  0.066895,1478545193.987
  0.415527,  0.862793,  0.068359,1478545194.070
  0.411133,  0.874512,  0.063477,1478545194.117
  0.417480,  0.868164,  0.068359,1478545194.162
  0.415039,  0.869629,  0.060059,1478545194.169
  0.416016,  0.877930,  0.042969,1478545194.214
  0.414063,  0.875977,  0.056152,1478545194.216
  0.409668,  0.861328,  0.068359,1478545194.253
  0.409668,  0.853516,  0.074219,1478545194.260
  0.411133,  0.870605,  0.072266,1478545194.304
  0.412109,  0.873047,  0.066895,1478545194.349
  0.419434,  0.859375,  0.063477,1478545194.394
  0.420898,  0.903320,  0.080078,1478545194.469
  0.403320,  0.968262, -0.032227,1478545194.486
  0.511230,  0.851563,  0.032227,1478545194.487
  0.424805,  1.034180, -0.063965,1478545194.512
  0.359863,  1.086426,  0.336914,1478545194.527
  0.455078,  0.581055,  0.397949,1478545194.543
  0.384277,  0.399414,  0.507324,1478545194.567
  0.386719,  0.431152,  0.466309,1478545194.587
  0.466309,  0.594238,  0.312500,1478545194.603
  0.422852,  0.803223,  0.234863,1478545194.633
  0.365723,  0.915527,  0.279297,1478545194.647
  0.347656,  0.953613,  0.301758,1478545194.678
  0.389160,  0.876465,  0.296387,1478545194.686
  0.411133,  0.762695,  0.303711,1478545194.707
  0.409668,  0.722656,  0.321289,1478545194.723
  0.402344,  0.738281,  0.307129,1478545194.746
  0.410645,  0.813965,  0.292480,1478545194.768
  0.413574,  0.846191,  0.296875,1478545194.783
  0.414551,  0.820801,  0.303223,1478545194.807
  0.421387,  0.810059,  0.284180,1478545194.845
  0.415527,  0.808594,  0.273926,1478545194.849
  0.407715,  0.824707,  0.283203,1478545194.866
  0.411133,  0.823730,  0.272949,1478545194.888
  0.408203,  0.812988,  0.272461,1478545194.911
  0.417480,  0.837402,  0.289063,1478545194.926
  0.409180,  0.817383,  0.262695,1478545194.956
  0.405273,  0.798828,  0.236816,1478545194.963
  0.381348,  0.812012,  0.240723,1478545194.986
  0.372070,  0.837402,  0.244629,1478545195.009
  0.387695,  0.845215,  0.251465,1478545195.023
  0.403809,  0.842773,  0.288574,1478545195.053
  0.406250,  0.804199,  0.305176,1478545195.068
  0.421875,  0.779785,  0.334473,1478545195.083
  0.422363,  0.773438,  0.320313,1478545195.113
  0.419434,  0.813477,  0.312012,1478545195.128
  0.414063,  0.842285,  0.309082,1478545195.144
  0.413574,  0.852051,  0.310547,1478545195.166
  0.409668,  0.831055,  0.310547,1478545195.189
  0.407715,  0.796875,  0.304688,1478545195.203
  0.398438,  0.778809,  0.299316,1478545195.234
  0.399414,  0.779785,  0.289063,1478545195.248
  0.394043,  0.806152,  0.283691,1478545195.278
  0.389160,  0.822266,  0.276367,1478545195.286
  0.389160,  0.819824,  0.271484,1478545195.308
  0.394531,  0.802246,  0.275879,1478545195.329
  0.402832,  0.799805,  0.278320,1478545195.346
  0.398926,  0.799316,  0.288086,1478545195.376
  0.405273,  0.805664,  0.294922,1478545195.391
  0.405762,  0.804199,  0.298828,1478545195.406
  0.406250,  0.801270,  0.293457,1478545195.436
  0.406738,  0.809570,  0.283691,1478545195.449
  0.410645,  0.816895,  0.287109,1478545195.466
  0.411133,  0.813477,  0.288086,1478545195.488
  0.404297,  0.816406,  0.285645,1478545195.511
  0.404297,  0.814941,  0.292969,1478545195.525
  0.407227,  0.813965,  0.299805,1478545195.531
  0.410156,  0.810059,  0.288086,1478545195.562
  0.402832,  0.812012,  0.291992,1478545195.576
  0.402344,  0.819336,  0.288086,1478545195.593
  0.402344,  0.812500,  0.288086,1478545195.615
  0.403809,  0.809570,  0.290039,1478545195.636
  0.401367,  0.807617,  0.283691,1478545195.654
  0.402832,  0.806641,  0.283691,1478545195.674
  0.405273,  0.810547,  0.286133,1478545195.715
  0.402344,  0.807617,  0.284180,1478545195.719
  0.403320,  0.806152,  0.281250,1478545195.741
  0.400879,  0.810547,  0.281738,1478545195.759
  0.396973,  0.809570,  0.288086,1478545195.788
  0.399902,  0.814941,  0.293457,1478545195.801
  0.403809,  0.805176,  0.283203,1478545195.816
  0.405762,  0.804199,  0.290039,1478545195.842
  0.403320,  0.811523,  0.285645,1478545195.854
  0.409180,  0.817871,  0.293945,1478545195.901
  0.404297,  0.812012,  0.290527,1478545195.903
  0.409668,  0.808105,  0.297363,1478545195.914
  0.409668,  0.812012,  0.289063,1478545195.945
  0.403809,  0.813965,  0.282715,1478545195.951
  0.407227,  0.815918,  0.280762,1478545195.990
  0.408691,  0.824707,  0.277832,1478545195.996
  0.402344,  0.818848,  0.278809,1478545196.018
  0.400879,  0.803711,  0.283691,1478545196.036
  0.402344,  0.805176,  0.277344,1478545196.068
  0.403320,  0.802734,  0.281738,1478545196.090
  0.402832,  0.810059,  0.280273,1478545196.094
  0.406250,  0.813477,  0.276855,1478545196.120
  0.401367,  0.820313,  0.278320,1478545196.131
  0.400879,  0.820801,  0.275391,1478545196.161
  0.402344,  0.809082,  0.275391,1478545196.179
  0.399902,  0.816895,  0.285645,1478545196.191
  0.397949,  0.818359,  0.284668,1478545196.223
  0.390625,  0.814453,  0.288086,1478545196.236
  0.411133,  0.813477,  0.280762,1478545196.254
  0.405762,  0.818359,  0.280762,1478545196.274
  0.402832,  0.822266,  0.281738,1478545196.299
  0.405273,  0.812988,  0.288574,1478545196.315
  0.404297,  0.810547,  0.286621,1478545196.341
  0.404297,  0.811523,  0.282715,1478545196.357
  0.402344,  0.817871,  0.275391,1478545196.396
  0.402832,  0.820801,  0.280762,1478545196.405
  0.397461,  0.820313,  0.282715,1478545196.411
  0.396973,  0.821289,  0.284180,1478545196.441
  0.399414,  0.817871,  0.284180,1478545196.463
  0.399902,  0.809570,  0.281738,1478545196.471
  0.399414,  0.808105,  0.276367,1478545196.500
  0.401367,  0.818359,  0.281738,1478545196.514
  0.400391,  0.819824,  0.279785,1478545196.544
  0.405762,  0.817383,  0.278809,1478545196.552
  0.398926,  0.804688,  0.273926,1478545196.577
  0.400879,  0.807129,  0.283691,1478545196.592
  0.403320,  0.812012,  0.285156,1478545196.637
  0.404297,  0.814941,  0.288574,1478545196.639
  0.404785,  0.809082,  0.291016,1478545196.673
  0.401855,  0.811035,  0.293945,1478545196.682
  0.398926,  0.789551,  0.277832,1478545196.695
  0.416016,  0.816406,  0.297852,1478545196.719
  0.407715,  0.842773,  0.358887,1478545196.734
  0.413574,  0.823730,  0.424316,1478545196.761
  0.417969,  0.760742,  0.492188,1478545196.784
  0.417480,  0.710449,  0.520996,1478545196.794
  0.423828,  0.737793,  0.547852,1478545196.821
  0.416992,  0.756348,  0.538574,1478545196.836
  0.402832,  0.745117,  0.589844,1478545196.854
  0.384766,  0.680176,  0.640137,1478545196.874
  0.380371,  0.629395,  0.667969,1478545196.891
  0.359375,  0.596680,  0.687012,1478545196.914
  0.342285,  0.572266,  0.699707,1478545196.934
  0.317383,  0.558105,  0.721680,1478545196.951
  0.280273,  0.526855,  0.756348,1478545196.990
  0.263184,  0.508301,  0.767090,1478545196.995
  0.254883,  0.414063,  0.752441,1478545197.011
  0.252441,  0.330078,  0.742676,1478545197.034
  0.209473,  0.268066,  0.826660,1478545197.056
  0.098633,  0.242188,  0.906250,1478545197.071
  0.014648,  0.288574,  0.850098,1478545197.102
  0.025879,  0.110352,  0.733398,1478545197.115
 -0.041992,  0.061035,  0.894043,1478545197.132
 -0.269043,  0.149414,  1.087402,1478545197.154
 -0.466309,  0.216309,  1.197266,1478545197.174
 -0.391602,  0.306641,  0.997070,1478545197.197
 -0.277832,  0.199219,  0.858887,1478545197.214
 -0.292969,  0.171387,  0.782715,1478545197.234
 -0.388184,  0.244141,  0.760254,1478545197.252
 -0.392578,  0.102539,  0.741699,1478545197.274
 -0.345215, -0.019043,  0.725098,1478545197.295
 -0.306152, -0.060547,  0.716797,1478545197.317
 -0.321777, -0.072754,  0.751465,1478545197.333
 -0.320313, -0.074707,  0.802734,1478545197.354
 -0.338867, -0.119629,  0.832520,1478545197.378
 -0.330078, -0.149902,  0.839355,1478545197.393
 -0.330078, -0.131348,  0.854004,1478545197.414
 -0.335449, -0.060547,  0.885254,1478545197.430
 -0.344727, -0.003906,  0.866211,1478545197.453
 -0.331543,  0.007813,  0.840332,1478545197.474
 -0.303223,  0.027832,  0.868164,1478545197.490
 -0.298828,  0.029297,  0.893555,1478545197.513
 -0.327637,  0.051270,  0.924805,1478545197.534
 -0.322266,  0.073730,  0.918945,1478545197.550
 -0.270020,  0.053223,  0.868652,1478545197.573
 -0.189941,  0.028320,  0.834473,1478545197.596
 -0.168457,  0.025879,  0.832520,1478545197.610
 -0.154297,  0.072266,  0.855957,1478545197.633
 -0.182617,  0.135254,  0.868164,1478545197.656
 -0.183105,  0.142578,  0.868652,1478545197.671
 -0.152344,  0.114258,  0.881348,1478545197.702
 -0.110840,  0.097168,  0.892578,1478545197.716
 -0.096191,  0.160156,  0.906250,1478545197.737
 -0.137695,  0.223145,  0.896973,1478545197.753
 -0.147461,  0.242188,  0.889160,1478545197.776
 -0.090820,  0.213379,  0.891602,1478545197.797
 -0.071289,  0.210449,  0.918457,1478545197.813
 -0.066406,  0.194824,  0.914551,1478545197.836
 -0.059570,  0.203125,  0.919922,1478545197.857
 -0.046387,  0.207031,  0.895020,1478545197.873
 -0.029297,  0.256836,  0.872070,1478545197.896
  0.009766,  0.325684,  0.858887,1478545197.922
  0.021973,  0.349609,  0.866699,1478545197.933
  0.031250,  0.324219,  0.880371,1478545197.956
  0.062500,  0.315918,  0.873535,1478545197.977
  0.088379,  0.335449,  0.855469,1478545198.001
  0.101563,  0.362793,  0.848145,1478545198.016
  0.106445,  0.394531,  0.827637,1478545198.044
  0.110352,  0.434082,  0.824219,1478545198.054
  0.110352,  0.439941,  0.796875,1478545198.076
  0.112793,  0.461426,  0.805664,1478545198.097
  0.130859,  0.469727,  0.771973,1478545198.113
  0.163086,  0.464844,  0.759277,1478545198.135
  0.176758,  0.491211,  0.753418,1478545198.165
  0.184082,  0.500488,  0.757324,1478545198.173
  0.178223,  0.521484,  0.764160,1478545198.196
  0.185547,  0.541504,  0.774414,1478545198.217
  0.193848,  0.573242,  0.766602,1478545198.255
  0.199707,  0.595703,  0.777344,1478545198.277
  0.186035,  0.603516,  0.768555,1478545198.332
  0.172852,  0.602051,  0.768555,1478545198.376
  0.165039,  0.583496,  0.748047,1478545198.517
  0.163086,  0.576660,  0.732910,1478545198.606
  0.185547,  0.622559,  0.649414,1478545198.859
  0.192383,  0.629395,  0.653320,1478545198.985
  0.186523,  0.611328,  0.664063,1478545199.000
  0.180176,  0.628906,  0.648438,1478545199.075
  0.182129,  0.629395,  0.644043,1478545199.119
  0.182129,  0.637695,  0.641113,1478545199.171
  0.188965,  0.630859,  0.651367,1478545199.218
  0.190918,  0.615723,  0.666016,1478545199.263
  0.188477,  0.626465,  0.666016,1478545199.265
  0.192383,  0.615234,  0.665527,1478545199.306
  0.189453,  0.630859,  0.665527,1478545199.308
  0.187012,  0.635742,  0.648926,1478545199.358
  0.187500,  0.643066,  0.647949,1478545199.404
  0.182129,  0.646973,  0.652344,1478545199.417
  0.193359,  0.621582,  0.641602,1478545199.449
  0.188965,  0.635254,  0.649414,1478545199.463
  0.183105,  0.640137,  0.648926,1478545199.494
  0.191895,  0.622070,  0.641113,1478545199.501
  0.192383,  0.616211,  0.654297,1478545199.509
  0.188477,  0.615723,  0.653320,1478545199.540
  0.191406,  0.627930,  0.654785,1478545199.554
  0.187500,  0.625488,  0.649902,1478545199.584
  0.187988,  0.630371,  0.653320,1478545199.596
  0.182617,  0.636719,  0.648926,1478545199.630
  0.186523,  0.630371,  0.648926,1478545199.674
  0.177246,  0.630371,  0.654297,1478545199.682
  0.179688,  0.642090,  0.659668,1478545199.727
  0.189453,  0.624512,  0.657715,1478545199.729
  0.185059,  0.631836,  0.674316,1478545199.773
  0.183594,  0.620117,  0.667969,1478545199.779
  0.183594,  0.641113,  0.666992,1478545199.785
  0.187500,  0.635254,  0.650879,1478545199.818
  0.187988,  0.635742,  0.659668,1478545199.862
  0.178711,  0.641113,  0.654297,1478545199.951
  0.184570,  0.638672,  0.650879,1478545199.959
  0.185547,  0.628906,  0.647461,1478545199.995
  0.190918,  0.634766,  0.653320,1478545200.004
  0.183594,  0.632813,  0.651855,1478545200.006
  0.193848,  0.626465,  0.653320,1478545200.050
  0.186523,  0.634277,  0.663086,1478545200.064
  0.189941,  0.631836,  0.652832,1478545200.066
  0.186523,  0.633301,  0.662598,1478545200.094
  0.187988,  0.635742,  0.656738,1478545200.139
  0.184082,  0.621582,  0.655762,1478545200.153
  0.182129,  0.633789,  0.661621,1478545200.186
  0.181152,  0.625488,  0.655273,1478545200.197
  0.185059,  0.624512,  0.662598,1478545200.229
  0.180664,  0.629883,  0.654297,1478545200.235
  0.184570,  0.626953,  0.653809,1478545200.251
  0.188477,  0.625488,  0.651367,1478545200.283
  0.180176,  0.631348,  0.659180,1478545200.326
  0.187012,  0.625488,  0.651855,1478545200.364
  0.186523,  0.637695,  0.662109,1478545200.364
  0.179688,  0.637695,  0.661133,1478545200.371
  0.187988,  0.633789,  0.656250,1478545200.374
  0.190430,  0.629883,  0.657227,1478545200.416
  0.192871,  0.622559,  0.654785,1478545200.419
  0.194336,  0.622070,  0.657227,1478545200.432
  0.187988,  0.634277,  0.662109,1478545200.464
  0.185547,  0.634766,  0.651855,1478545200.506
  0.192383,  0.633301,  0.656738,1478545200.509
  0.187012,  0.622559,  0.652344,1478545200.514
  0.187500,  0.626465,  0.653809,1478545200.528
  0.184570,  0.638184,  0.656250,1478545200.559
  0.188965,  0.633301,  0.656738,1478545200.562
  0.192871,  0.624512,  0.657715,1478545200.605
  0.190430,  0.625977,  0.655273,1478545200.611
  0.191895,  0.625000,  0.659668,1478545200.619
  0.189453,  0.621582,  0.654297,1478545200.694
  0.185059,  0.615723,  0.653809,1478545200.708
  0.187012,  0.619629,  0.652832,1478545200.739
  0.185547,  0.621094,  0.656250,1478545200.745
  0.184570,  0.638672,  0.659180,1478545200.785
  0.189453,  0.637207,  0.657715,1478545200.789
  0.182129,  0.630859,  0.660645,1478545200.798
  0.186035,  0.624023,  0.663574,1478545200.837
  0.181152,  0.624512,  0.666016,1478545200.881
  0.187500,  0.627441,  0.671387,1478545200.884
  0.185059,  0.636719,  0.664063,1478545200.928
  0.184570,  0.635254,  0.662109,1478545200.971
  0.189453,  0.622559,  0.661621,1478545201.022
  0.187500,  0.624512,  0.653809,1478545201.063
  0.184082,  0.622559,  0.659180,1478545201.064
  0.188965,  0.623535,  0.662109,1478545201.070
  0.184570,  0.640137,  0.656738,1478545201.070
  0.187500,  0.635254,  0.658203,1478545201.105
  0.190430,  0.630859,  0.665527,1478545201.112
  0.183105,  0.621094,  0.661133,1478545201.159
  0.193848,  0.623047,  0.658691,1478545201.162
  0.189941,  0.626465,  0.663574,1478545201.217
  0.185547,  0.627441,  0.657715,1478545201.249
  0.187012,  0.635254,  0.656250,1478545201.264
  0.181152,  0.623047,  0.653809,1478545201.294
  0.188477,  0.626953,  0.653809,1478545201.296
  0.189453,  0.631348,  0.657227,1478545201.310
  0.189453,  0.631836,  0.660156,1478545201.340
  0.191895,  0.629395,  0.662109,1478545201.345
  0.187500,  0.625488,  0.662598,1478545201.384
  0.194336,  0.624512,  0.657227,1478545201.396
  0.186035,  0.630859,  0.664063,1478545201.438
  0.190430,  0.629883,  0.660156,1478545201.496
  0.194336,  0.632813,  0.659668,1478545201.526
  0.188477,  0.628418,  0.660156,1478545201.529
  0.186523,  0.632813,  0.657227,1478545201.549
  0.192871,  0.622070,  0.651855,1478545201.571
  0.187500,  0.628906,  0.660156,1478545201.576
  0.189941,  0.624512,  0.650391,1478545201.591
  0.190430,  0.627441,  0.656738,1478545201.617
  0.188477,  0.623047,  0.651855,1478545201.628
  0.187012,  0.624512,  0.656738,1478545201.668
  0.182129,  0.625977,  0.659180,1478545201.670
  0.181152,  0.630859,  0.656250,1478545201.714
  0.181152,  0.630859,  0.653320,1478545201.720
  0.181152,  0.625977,  0.655762,1478545201.726
  0.186523,  0.625977,  0.661621,1478545201.759
  0.187500,  0.634766,  0.657227,1478545201.774
  0.185059,  0.631836,  0.660645,1478545201.805
  0.187500,  0.624512,  0.655273,1478545201.849
  0.190430,  0.632813,  0.659668,1478545201.851
  0.182617,  0.625488,  0.661621,1478545201.871
  0.189453,  0.617676,  0.651367,1478545201.903
  0.186523,  0.629883,  0.662109,1478545201.947
  0.182129,  0.642090,  0.659180,1478545201.948
  0.187988,  0.643066,  0.652344,1478545201.963
  0.189453,  0.638184,  0.657715,1478545201.994
  0.182617,  0.639160,  0.658203,1478545202.005
  0.181152,  0.638184,  0.655762,1478545202.038
  0.180176,  0.634766,  0.658691,1478545202.051
  0.184082,  0.632813,  0.657227,1478545202.082
  0.187012,  0.626465,  0.651855,1478545202.096
  0.183105,  0.630859,  0.649902,1478545202.127
  0.184570,  0.633789,  0.649902,1478545202.141
  0.185059,  0.628906,  0.648438,1478545202.224
  0.186035,  0.629395,  0.646484,1478545202.226
  0.192383,  0.632324,  0.647949,1478545202.271
  0.190918,  0.638672,  0.655762,1478545202.314
  0.187988,  0.634277,  0.654297,1478545202.329
  0.186523,  0.636230,  0.654297,1478545202.336
  0.182617,  0.638672,  0.663574,1478545202.410
  0.185547,  0.638672,  0.654297,1478545202.417
  0.193848,  0.630859,  0.644043,1478545202.456
  0.191406,  0.632324,  0.645020,1478545202.459
  0.189453,  0.636230,  0.655273,1478545202.502
  0.188477,  0.635742,  0.645996,1478545202.509
  0.192871,  0.634277,  0.648438,1478545202.514
  0.182617,  0.639160,  0.645020,1478545202.547
  0.187012,  0.634277,  0.646484,1478545202.591
  0.192871,  0.628906,  0.654785,1478545202.594
  0.196289,  0.630371,  0.644043,1478545202.608
  0.191406,  0.633301,  0.655762,1478545202.614
  0.193848,  0.637695,  0.653320,1478545202.682
  0.189941,  0.644043,  0.652832,1478545202.695
  0.189941,  0.632813,  0.651855,1478545202.727
  0.189941,  0.627441,  0.652344,1478545202.732
  0.186035,  0.625977,  0.649902,1478545202.779
  0.191895,  0.626465,  0.641113,1478545202.785
  0.183594,  0.640137,  0.653809,1478545202.825
  0.183594,  0.641602,  0.646484,1478545202.839
  0.184570,  0.647949,  0.645508,1478545202.840
  0.187500,  0.643066,  0.649902,1478545202.871
  0.187988,  0.623535,  0.652344,1478545202.914
  0.192383,  0.626953,  0.658203,1478545202.916
  0.190430,  0.636230,  0.646973,1478545202.960
  0.189453,  0.646973,  0.650391,1478545202.962
  0.184082,  0.641602,  0.650391,1478545202.972
  0.188965,  0.635742,  0.658691,1478545202.981
  0.189941,  0.625977,  0.660156,1478545203.013
  0.192871,  0.623535,  0.661621,1478545203.019
  0.193359,  0.632813,  0.651855,1478545203.056
  0.187012,  0.635254,  0.661133,1478545203.059
  0.190430,  0.649414,  0.693848,1478545203.132
  0.193848,  0.832031,  0.776367,1478545203.137
 -0.112793, -1.104492,  1.214355,1478545203.145
  0.350098, -0.760742, -0.939453,1478545203.168
  0.959473,  1.796387, -1.547852,1478545203.189
  0.657227,  3.832520, -1.896973,1478545203.205
  0.632813,  1.479980, -0.242188,1478545203.228
 -0.126465,  0.917480, -0.414063,1478545203.249
  0.522949, -1.130859,  0.063965,1478545203.273
  0.125488, -0.319824,  0.122559,1478545203.288
  0.165527,  0.955078, -0.266113,1478545203.317
  0.252930,  1.500488, -0.412598,1478545203.333
  0.390625,  1.229980, -0.363770,1478545203.348
  0.284668,  0.907715, -0.310059,1478545203.371
  0.275879,  0.794922, -0.155762,1478545203.392
  0.325684,  0.931641, -0.157715,1478545203.408
  0.384277,  1.005371, -0.139648,1478545203.438
  0.355957,  1.009766, -0.102051,1478545203.452
  0.346680,  0.971680, -0.081543,1478545203.470
  0.362793,  0.951660, -0.074707,1478545203.491
  0.356934,  0.969727, -0.082031,1478545203.512
  0.332031,  0.973633, -0.097656,1478545203.528
  0.338867,  0.979980, -0.096191,1478545203.551
  0.303711,  0.962402, -0.089355,1478545203.565
  0.288086,  0.932617, -0.092285,1478545203.588
  0.307617,  0.910156, -0.132324,1478545203.611
  0.273438,  0.914551, -0.128418,1478545203.625
  0.261719,  0.923340, -0.110352,1478545203.648
  0.264160,  0.924316, -0.164063,1478545203.671
  0.307129,  0.951172, -0.149902,1478545203.692
  0.267578,  0.919922, -0.137207,1478545203.715
  0.272461,  0.893066, -0.093262,1478545203.730
  0.291504,  0.920898, -0.102539,1478545203.745
  0.325195,  0.956543, -0.106934,1478545203.768
  0.331543,  0.958008, -0.109375,1478545203.791
  0.345703,  0.935059, -0.113770,1478545203.812
  0.348633,  0.912109, -0.131348,1478545203.828
  0.346191,  0.876953, -0.160645,1478545203.851
  0.334961,  0.842773, -0.154297,1478545203.872
  0.312988,  0.835449, -0.146973,1478545203.888
  0.288086,  0.848145, -0.126465,1478545203.911
  0.283203,  0.882813, -0.110840,1478545203.932
  0.298828,  0.907715, -0.094727,1478545203.948
  0.316895,  0.916504, -0.109375,1478545203.977
  0.332520,  0.922852, -0.116699,1478545203.993
  0.345215,  0.938477, -0.117188,1478545204.008
  0.341797,  0.950684, -0.108887,1478545204.038
  0.338867,  0.945313, -0.100586,1478545204.052
  0.332520,  0.931152, -0.088379,1478545204.068
  0.334961,  0.916016, -0.089355,1478545204.091
  0.332520,  0.898926, -0.081055,1478545204.112
  0.335449,  0.903320, -0.083008,1478545204.128
  0.332520,  0.916016, -0.108887,1478545204.151
  0.326172,  0.927246, -0.113770,1478545204.172
  0.320801,  0.920898, -0.124023,1478545204.188
  0.317383,  0.911621, -0.123047,1478545204.210
  0.314453,  0.907227, -0.119141,1478545204.233
  0.314453,  0.907227, -0.117188,1478545204.248
  0.323730,  0.911133, -0.124023,1478545204.270
  0.321777,  0.918457, -0.126465,1478545204.293
  0.324707,  0.913574, -0.114258,1478545204.315
  0.329102,  0.908203, -0.120117,1478545204.330
  0.330078,  0.914551, -0.119629,1478545204.359
  0.330566,  0.909180, -0.119629,1478545204.368
  0.331055,  0.914551, -0.115723,1478545204.391
  0.327148,  0.913086, -0.127930,1478545204.413
  0.329102,  0.910645, -0.122559,1478545204.428
  0.328125,  0.916016, -0.120117,1478545204.451
  0.326660,  0.920898, -0.125000,1478545204.473
  0.328613,  0.917969, -0.123047,1478545204.488
  0.326172,  0.909668, -0.116699,1478545204.511
  0.329590,  0.913086, -0.110840,1478545204.533
  0.326660,  0.908691, -0.109863,1478545204.554
  0.328613,  0.916992, -0.110352,1478545204.571
  0.330078,  0.932617, -0.114746,1478545204.593
  0.331543,  0.940918, -0.122070,1478545204.607
  0.322266,  0.936523, -0.115723,1478545204.631
  0.321777,  0.925781, -0.108887,1478545204.659
  0.318848,  0.915039, -0.098633,1478545204.667
  0.312988,  0.907227, -0.095215,1478545204.691
  0.312988,  0.894043, -0.076660,1478545204.713
  0.310547,  0.879395, -0.077637,1478545204.734
  0.313965,  0.887695, -0.079102,1478545204.750
  0.315918,  0.897949, -0.082031,1478545204.773
  0.321777,  0.916504, -0.088867,1478545204.794
  0.320313,  0.930664, -0.094727,1478545204.811
  0.324219,  0.922852, -0.097168,1478545204.839
  0.318359,  0.914063, -0.088867,1478545204.854
  0.315918,  0.914551, -0.084473,1478545204.870
  0.319824,  0.914063, -0.089844,1478545204.901
  0.320313,  0.918945, -0.084961,1478545204.914
  0.318848,  0.921875, -0.089844,1478545204.931
  0.323242,  0.923828, -0.081543,1478545204.953
  0.321777,  0.927246, -0.088379,1478545204.982
  0.319336,  0.920410, -0.083008,1478545204.991
  0.324707,  0.917480, -0.089355,1478545205.013
  0.320801,  0.918945, -0.089844,1478545205.035
  0.319824,  0.913086, -0.084473,1478545205.051
  0.314453,  0.917969, -0.087402,1478545205.073
  0.313965,  0.916992, -0.092773,1478545205.102
  0.312500,  0.914551, -0.087891,1478545205.117
  0.311035,  0.916504, -0.083496,1478545205.133
  0.309082,  0.920410, -0.094727,1478545205.154
  0.316406,  0.915527, -0.081055,1478545205.171
  0.316895,  0.914063, -0.081543,1478545205.193
  0.318359,  0.912109, -0.088867,1478545205.215
  0.312500,  0.914551, -0.083496,1478545205.230
  0.312500,  0.918457, -0.085449,1478545205.253
  0.317383,  0.922363, -0.085938,1478545205.275
  0.312988,  0.918457, -0.085938,1478545205.290
  0.315430,  0.915039, -0.086426,1478545205.313
  0.310059,  0.915527, -0.084473,1478545205.335
  0.316406,  0.916016, -0.086426,1478545205.350
  0.320801,  0.915527, -0.086426,1478545205.380
  0.316406,  0.918457, -0.092285,1478545205.395
  0.315430,  0.909180, -0.082031,1478545205.410
  0.314453,  0.920410, -0.091309,1478545205.433
  0.312500,  0.924805, -0.090820,1478545205.456
  0.318359,  0.921875, -0.091309,1478545205.470
  0.310547,  0.922852, -0.085449,1478545205.493
  0.317871,  0.916016, -0.085449,1478545205.516
  0.321289,  0.916504, -0.085938,1478545205.538
  0.317383,  0.914551, -0.083984,1478545205.553
  0.316895,  0.911621, -0.083984,1478545205.576
  0.318359,  0.910645, -0.084961,1478545205.590
  0.317871,  0.905273, -0.080078,1478545205.613
  0.316895,  0.913574, -0.086426,1478545205.636
  0.316895,  0.917480, -0.092285,1478545205.658
  0.317383,  0.916504, -0.088867,1478545205.673
  0.315918,  0.922852, -0.086426,1478545205.703
  0.320313,  0.920410, -0.087402,1478545205.717
  0.316895,  0.913574, -0.085449,1478545205.733
  0.312500,  0.914551, -0.084473,1478545205.756
  0.309082,  0.916992, -0.081055,1478545205.777
  0.311035,  0.917480, -0.082031,1478545205.793
  0.307129,  0.914063, -0.086426,1478545205.815
  0.317383,  0.911621, -0.085938,1478545205.837
  0.313965,  0.916016, -0.090332,1478545205.853
  0.312988,  0.906250, -0.081055,1478545205.875
  0.315918,  0.908691, -0.084961,1478545205.897
  0.320801,  0.916016, -0.088379,1478545205.913
  0.317871,  0.929688, -0.089844,1478545205.935
  0.312988,  0.921387, -0.093750,1478545205.957
  0.310547,  0.917480, -0.092285,1478545205.981
  0.312012,  0.918457, -0.099121,1478545205.996
  0.312500,  0.933105, -0.106934,1478545206.017
  0.311523,  0.945313, -0.107910,1478545206.033
  0.311035,  0.935059, -0.107910,1478545206.056
  0.312500,  0.917969, -0.105469,1478545206.077
  0.312012,  0.910156, -0.104492,1478545206.093
  0.318848,  0.909180, -0.100098,1478545206.116
  0.317871,  0.912598, -0.103027,1478545206.138
  0.317383,  0.915527, -0.094238,1478545206.153
  0.316895,  0.919434, -0.098633,1478545206.176
  0.315430,  0.916992, -0.100098,1478545206.198
  0.316895,  0.911621, -0.097656,1478545206.213
  0.315918,  0.914551, -0.096191,1478545206.236
  0.318848,  0.917480, -0.098633,1478545206.258
  0.319824,  0.927246, -0.106445,1478545206.279
  0.316895,  0.923828, -0.105957,1478545206.295
  0.310059,  0.917480, -0.094238,1478545206.334
  0.314453,  0.917480, -0.094238,1478545206.336
  0.311523,  0.916016, -0.085449,1478545206.341
  0.310059,  0.910156, -0.083984,1478545206.361
  0.313965,  0.909668, -0.088867,1478545206.383
  0.314941,  0.919434, -0.099609,1478545206.400
  0.312012,  0.924805, -0.097656,1478545206.421
  0.307129,  0.929688, -0.089844,1478545206.443
  0.306152,  0.927246, -0.100586,1478545206.460
  0.310059,  0.925781, -0.096680,1478545206.489
  0.304199,  0.919922, -0.094727,1478545206.504
  0.301270,  0.929199, -0.100098,1478545206.519
  0.305664,  0.922363, -0.094727,1478545206.541
  0.308105,  0.929199, -0.102539,1478545206.564
  0.308594,  0.927734, -0.100586,1478545206.579
  0.304199,  0.913574, -0.096680,1478545206.601
  0.307129,  0.912598, -0.097168,1478545206.624
  0.306152,  0.917969, -0.094727,1478545206.639
  0.305176,  0.916504, -0.098633,1478545206.661
  0.301270,  0.918945, -0.102051,1478545206.684
  0.308105,  0.917969, -0.088867,1478545206.699
  0.299316,  0.916016, -0.094238,1478545206.721
  0.303223,  0.919922, -0.096680,1478545206.743
  0.306152,  0.923340, -0.093262,1478545206.767
  0.310547,  0.929199, -0.092773,1478545206.782
  0.312012,  0.922852, -0.088867,1478545206.812
  0.311035,  0.915039, -0.083496,1478545206.820
  0.307617,  0.917969, -0.082520,1478545206.841
  0.305176,  0.928711, -0.106445,1478545206.863
  0.317871,  0.951172, -0.132813,1478545206.880
  0.314453,  0.993652, -0.155273,1478545206.901
  0.312500,  1.035645, -0.221191,1478545206.926
  0.316406,  0.983887, -0.270020,1478545206.940
  0.377441,  0.825195, -0.321777,1478545206.961
  0.349121,  0.882324, -0.242676,1478545206.983
  0.455566,  1.332520, -0.042480,1478545207.000
  0.300293,  1.051758, -0.185059,1478545207.029
  0.335938, -0.651855, -0.187500,1478545207.046
  0.057129, -1.052734,  1.508301,1478545207.060
 -0.273438, -0.553711,  1.477051,1478545207.092
  0.328125, -0.715820,  1.104004,1478545207.105
 -0.032227,  0.192383,  0.646484,1478545207.135
 -0.204102,  1.408691,  0.413086,1478545207.141
 -0.383301,  1.608398,  0.612793,1478545207.174
 -0.151367,  0.803223,  0.938477,1478545207.183
  0.034180,  0.195313,  1.125000,1478545207.210
  0.133301, -0.110352,  1.114746,1478545207.231
  0.010742,  0.337891,  0.913574,1478545207.241
 -0.073242,  0.763672,  0.749023,1478545207.280
 -0.018066,  0.746582,  0.729980,1478545207.285
  0.034180,  0.463379,  0.810059,1478545207.339
  0.027832,  0.310059,  0.852051,1478545207.355
  0.048340,  0.303711,  0.835449,1478545207.376
  0.002441,  0.388184,  0.836426,1478545207.384
  0.008789,  0.472656,  0.786621,1478545207.397
  0.044922,  0.514160,  0.734375,1478545207.420
 -0.004395,  0.501465,  0.750977,1478545207.423
  0.002441,  0.472656,  0.767578,1478545207.467
  0.016113,  0.524902,  0.760742,1478545207.471
  0.001953,  0.537598,  0.748047,1478545207.510
  0.007813,  0.495605,  0.750977,1478545207.513
  0.013184,  0.468750,  0.738770,1478545207.524
  0.007324,  0.447266,  0.737305,1478545207.555
 -0.015137,  0.466797,  0.756836,1478545207.562
 -0.014648,  0.479492,  0.770508,1478545207.603
 -0.010254,  0.530273,  0.791016,1478545207.608
 -0.014648,  0.541504,  0.799805,1478545207.646
  0.003418,  0.521484,  0.789063,1478545207.663
  0.011230,  0.494629,  0.780273,1478545207.663
  0.001953,  0.498535,  0.794922,1478545207.692
 -0.000977,  0.520996,  0.784180,1478545207.699
  0.008301,  0.527832,  0.776855,1478545207.737
  0.013672,  0.511230,  0.778809,1478545207.742
  0.016113,  0.501465,  0.771973,1478545207.783
  0.011230,  0.495605,  0.771973,1478545207.788
  0.015137,  0.502441,  0.767090,1478545207.802
  0.006348,  0.529785,  0.765137,1478545207.826
  0.003418,  0.530273,  0.776367,1478545207.841
  0.011230,  0.527344,  0.769531,1478545207.880
  0.012695,  0.515625,  0.760254,1478545207.885
  0.011230,  0.509766,  0.758301,1478545207.925
 -0.006348,  0.519531,  0.766602,1478545207.930
 -0.003418,  0.532227,  0.762695,1478545207.939
 -0.001953,  0.534180,  0.773438,1478545207.969
  0.001465,  0.514160,  0.770020,1478545207.982
  0.005371,  0.494629,  0.763672,1478545208.012
  0.004883,  0.512207,  0.761719,1478545208.021
 -0.000488,  0.525391,  0.771484,1478545208.058
  0.000488,  0.528320,  0.763672,1478545208.061
  0.008789,  0.512695,  0.751953,1478545208.081
 -0.012207,  0.520508,  0.757813,1478545208.104
 -0.008789,  0.529297,  0.755859,1478545208.124
 -0.010254,  0.535156,  0.763184,1478545208.156
 -0.017090,  0.528320,  0.764160,1478545208.163
 -0.002441,  0.516602,  0.757324,1478545208.201
 -0.008301,  0.518555,  0.758789,1478545208.204
 -0.011719,  0.520996,  0.761719,1478545208.247
 -0.012207,  0.530273,  0.753418,1478545208.252
 -0.010254,  0.516602,  0.744141,1478545208.261
 -0.001953,  0.518066,  0.753906,1478545208.284
 -0.015625,  0.518555,  0.762695,1478545208.297
 -0.012207,  0.515137,  0.777832,1478545208.322
 -0.008789,  0.507813,  0.768066,1478545208.343
  0.000488,  0.519531,  0.766113,1478545208.357
  0.003906,  0.518066,  0.747559,1478545208.381
  0.003418,  0.555176,  0.747070,1478545208.403
 -0.020996,  0.516602,  0.738770,1478545208.433
 -0.023438,  0.539551,  0.771973,1478545208.440
 -0.033203,  0.553711,  0.768066,1478545208.479
 -0.008789,  0.537598,  0.781250,1478545208.484
  0.015137,  0.535156,  0.739746,1478545208.502
  0.004883,  0.541992,  0.722168,1478545208.524
 -0.009766,  0.520996,  0.748047,1478545208.562
 -0.028809,  0.538086,  0.763184,1478545208.564
 -0.030762,  0.549805,  0.763184,1478545208.583
 -0.017090,  0.567383,  0.754395,1478545208.604
  0.003418,  0.531250,  0.716797,1478545208.621
 -0.000977,  0.560547,  0.720215,1478545208.643
  0.000000,  0.557617,  0.742676,1478545208.664
  0.001953,  0.606934,  0.752441,1478545208.681
  0.020996,  0.605957,  0.734863,1478545208.751
  0.043457,  0.585449,  0.724609,1478545208.752
  0.068359,  0.542969,  0.704102,1478545208.752
  0.102051,  0.544922,  0.696777,1478545208.763
  0.090332,  0.625000,  0.718262,1478545208.784
  0.020020,  0.666504,  0.675293,1478545208.800
  0.023926,  0.615723,  0.632813,1478545208.823
  0.051758,  0.592285,  0.614258,1478545208.844
  0.049805,  0.615723,  0.584961,1478545208.860
  0.011230,  0.677246,  0.546875,1478545208.883
 -0.059082,  0.794434,  0.523438,1478545208.904
 -0.095703,  0.906250,  0.440430,1478545208.920
 -0.096191,  0.952637,  0.421387,1478545208.943
 -0.120117,  0.895020,  0.464844,1478545208.964
 -0.177734,  0.891602,  0.556641,1478545208.988
 -0.200195,  0.803223,  0.560547,1478545209.003
 -0.228516,  0.769043,  0.596191,1478545209.033
 -0.187988,  0.732422,  0.587402,1478545209.054
 -0.105469,  0.729492,  0.576172,1478545209.063
 -0.047363,  0.693359,  0.538574,1478545209.102
 -0.000977,  0.696777,  0.498535,1478545209.107
  0.041992,  0.727539,  0.458496,1478545209.123
  0.079590,  0.763672,  0.430176,1478545209.146
  0.066895,  0.829102,  0.472168,1478545209.167
  0.033203,  0.751465,  0.500000,1478545209.183
  0.050293,  0.646484,  0.535156,1478545209.206
  0.043457,  0.611328,  0.521973,1478545209.227
 -0.038574,  0.687500,  0.549805,1478545209.243
 -0.114746,  0.737793,  0.546875,1478545209.266
 -0.145508,  0.725098,  0.583008,1478545209.287
 -0.135254,  0.666016,  0.630371,1478545209.311
 -0.136719,  0.636230,  0.668457,1478545209.326
 -0.173340,  0.639160,  0.687012,1478545209.347
 -0.190430,  0.587402,  0.667969,1478545209.363
 -0.174805,  0.559570,  0.667480,1478545209.385
 -0.156250,  0.583496,  0.640625,1478545209.407
 -0.177246,  0.708008,  0.656250,1478545209.423
 -0.201660,  0.727539,  0.663086,1478545209.445
 -0.179688,  0.659180,  0.666016,1478545209.467
 -0.175781,  0.563965,  0.694824,1478545209.484
 -0.187988,  0.515137,  0.729980,1478545209.505
 -0.171387,  0.508301,  0.741699,1478545209.543
 -0.168945,  0.552734,  0.729980,1478545209.546
 -0.179688,  0.559570,  0.736816,1478545209.566
 -0.236816,  0.645508,  0.873535,1478545209.589
 -0.246094,  0.700195,  0.787109,1478545209.603
 -0.105469,  0.548828,  0.711426,1478545209.626
 -0.145508,  0.518555,  0.715332,1478545209.647
 -0.205566,  0.523926,  0.712891,1478545209.671
 -0.218750,  0.578613,  0.705566,1478545209.686
 -0.238281,  0.590332,  0.728516,1478545209.714
 -0.212402,  0.578125,  0.721191,1478545209.723
 -0.166016,  0.521973,  0.715820,1478545209.746
 -0.160645,  0.510742,  0.725586,1478545209.767
 -0.146973,  0.555664,  0.737793,1478545209.782
 -0.139648,  0.599121,  0.752441,1478545209.822
 -0.165039,  0.625488,  0.728027,1478545209.859
 -0.182617,  0.580078,  0.719727,1478545209.867
 -0.196289,  0.566895,  0.708496,1478545209.872
 -0.216797,  0.568848,  0.708984,1478545209.887
 -0.234863,  0.575195,  0.701172,1478545209.910
 -0.240234,  0.548340,  0.705078,1478545209.926
 -0.221680,  0.542480,  0.699219,1478545209.948
 -0.194824,  0.557129,  0.707520,1478545209.963
 -0.181152,  0.577637,  0.708008,1478545209.993
 -0.174805,  0.562500,  0.693848,1478545210.008
 -0.170410,  0.542480,  0.699707,1478545210.023
 -0.176270,  0.568359,  0.697754,1478545210.045
 -0.185059,  0.588379,  0.692871,1478545210.068
 -0.197266,  0.583008,  0.697266,1478545210.098
 -0.193848,  0.576172,  0.710449,1478545210.105
 -0.184082,  0.565918,  0.710449,1478545210.145
 -0.188477,  0.562988,  0.718262,1478545210.149
 -0.184570,  0.555176,  0.721191,1478545210.166
 -0.183105,  0.556641,  0.716309,1478545210.188
 -0.180664,  0.564453,  0.718750,1478545210.202
 -0.180176,  0.569824,  0.713379,1478545210.226
 -0.181641,  0.577637,  0.712891,1478545210.256
 -0.188477,  0.576660,  0.712402,1478545210.269
 -0.194336,  0.570801,  0.697754,1478545210.286
 -0.189453,  0.573242,  0.695313,1478545210.308
 -0.184082,  0.578125,  0.697266,1478545210.322
 -0.190430,  0.587891,  0.691406,1478545210.346
 -0.193848,  0.587402,  0.685547,1478545210.376
 -0.198730,  0.585938,  0.697266,1478545210.408
 -0.192383,  0.592773,  0.690918,1478545210.419
 -0.192383,  0.582520,  0.696289,1478545210.428
 -0.195313,  0.576172,  0.698242,1478545210.449
 -0.195801,  0.579590,  0.690918,1478545210.465
 -0.190918,  0.585449,  0.699707,1478545210.488
 -0.190430,  0.579102,  0.696777,1478545210.509
 -0.192383,  0.574219,  0.702637,1478545210.525
 -0.199219,  0.576660,  0.699707,1478545210.548
 -0.192871,  0.579590,  0.694824,1478545210.569
 -0.189941,  0.581543,  0.692383,1478545210.586
 -0.199219,  0.583984,  0.694824,1478545210.608
 -0.195313,  0.588867,  0.693359,1478545210.629
 -0.194336,  0.587891,  0.693848,1478545210.653
 -0.193848,  0.591797,  0.690430,1478545210.668
 -0.197266,  0.589844,  0.690430,1478545210.698
 -0.197266,  0.585449,  0.693359,1478545210.706
 -0.194824,  0.583984,  0.688965,1478545210.734
 -0.193848,  0.580078,  0.687988,1478545210.749
 -0.196777,  0.583496,  0.689453,1478545210.766
 -0.193359,  0.595703,  0.683105,1478545210.789
 -0.194336,  0.588867,  0.694336,1478545210.809
 -0.195801,  0.583496,  0.692383,1478545210.826
 -0.194824,  0.591309,  0.689941,1478545210.848
 -0.194336,  0.587402,  0.684082,1478545210.871
 -0.194336,  0.588867,  0.688965,1478545210.885
 -0.195313,  0.588379,  0.684082,1478545210.908
 -0.190430,  0.587891,  0.699219,1478545210.930
 -0.190918,  0.591797,  0.691895,1478545210.950
 -0.200195,  0.589844,  0.690918,1478545210.976
 -0.200195,  0.587402,  0.690430,1478545210.990
 -0.201660,  0.593262,  0.681152,1478545211.013
 -0.198730,  0.597168,  0.681641,1478545211.028
 -0.197266,  0.598145,  0.686035,1478545211.058
 -0.187988,  0.592285,  0.687500,1478545211.065
 -0.191406,  0.583496,  0.690430,1478545211.088
 -0.194824,  0.588379,  0.690430,1478545211.111
 -0.196777,  0.593750,  0.688477,1478545211.125
 -0.199219,  0.589355,  0.682617,1478545211.148
 -0.192383,  0.593262,  0.689941,1478545211.170
 -0.191406,  0.589844,  0.693359,1478545211.209
 -0.195801,  0.588867,  0.687988,1478545211.211
 -0.196289,  0.584961,  0.691406,1478545211.231
 -0.192871,  0.588379,  0.686523,1478545211.253
 -0.196777,  0.592773,  0.683105,1478545211.268
 -0.198242,  0.596191,  0.685547,1478545211.291
 -0.204102,  0.596191,  0.685059,1478545211.305
 -0.192383,  0.591309,  0.682617,1478545211.334
 -0.190430,  0.588379,  0.686035,1478545211.351
 -0.189941,  0.587891,  0.682129,1478545211.365
 -0.190430,  0.587891,  0.683594,1478545211.388
 -0.197754,  0.592285,  0.693359,1478545211.410
 -0.195313,  0.586914,  0.686035,1478545211.432
 -0.191895,  0.586914,  0.686523,1478545211.454
 -0.193359,  0.586426,  0.687012,1478545211.471
 -0.196289,  0.592773,  0.685059,1478545211.492
 -0.200684,  0.595703,  0.680176,1478545211.508
 -0.195313,  0.593262,  0.690430,1478545211.531
 -0.196289,  0.596191,  0.680664,1478545211.551
 -0.193848,  0.594727,  0.686523,1478545211.568
 -0.191406,  0.592773,  0.689453,1478545211.590
 -0.193359,  0.588867,  0.685547,1478545211.611
 -0.192871,  0.593262,  0.686035,1478545211.628
 -0.192383,  0.594238,  0.683594,1478545211.658
 -0.199707,  0.592773,  0.684570,1478545211.671
 -0.193848,  0.590820,  0.682617,1478545211.688
 -0.189941,  0.594238,  0.684082,1478545211.711
 -0.193848,  0.596191,  0.688965,1478545211.716
 -0.195801,  0.595215,  0.688477,1478545211.748
 -0.188965,  0.590820,  0.685547,1478545211.763
 -0.193848,  0.598145,  0.681641,1478545211.776
 -0.199219,  0.596191,  0.686035,1478545211.811
 -0.197266,  0.593262,  0.687500,1478545211.815
 -0.196777,  0.592773,  0.687500,1478545211.836
 -0.192383,  0.591797,  0.682617,1478545211.859
 -0.196289,  0.593262,  0.678711,1478545211.874
 -0.195313,  0.598145,  0.687988,1478545211.896
 -0.195313,  0.591797,  0.692871,1478545211.921
 -0.197266,  0.595703,  0.684570,1478545211.935
 -0.195313,  0.592285,  0.684082,1478545211.956
 -0.191895,  0.593750,  0.691406,1478545211.981
 -0.192871,  0.594238,  0.682129,1478545211.994
 -0.191895,  0.596191,  0.686523,1478545212.016
 -0.198242,  0.599121,  0.685547,1478545212.041
 -0.195313,  0.591309,  0.687988,1478545212.053
 -0.188965,  0.595215,  0.684082,1478545212.085
 -0.190918,  0.595215,  0.686523,1478545212.098
 -0.189941,  0.594238,  0.696289,1478545212.113
 -0.194824,  0.589355,  0.686035,1478545212.136
 -0.195313,  0.587402,  0.684570,1478545212.168
 -0.198730,  0.596191,  0.683105,1478545212.173
 -0.197266,  0.598633,  0.680176,1478545212.196
 -0.191895,  0.593262,  0.686035,1478545212.218
 -0.190918,  0.593262,  0.689941,1478545212.234
 -0.188965,  0.593750,  0.684570,1478545212.259
 -0.192871,  0.596680,  0.687500,1478545212.279
 -0.199219,  0.588379,  0.685059,1478545212.294
 -0.196289,  0.592285,  0.685547,1478545212.319
 -0.198242,  0.595215,  0.680176,1478545212.334
 -0.197266,  0.597168,  0.679199,1478545212.364
 -0.193848,  0.594727,  0.688965,1478545212.376
 -0.195313,  0.592773,  0.691895,1478545212.401
 -0.192383,  0.588867,  0.687012,1478545212.414
 -0.197266,  0.590332,  0.682129,1478545212.436
 -0.196289,  0.599609,  0.686035,1478545212.454
 -0.199219,  0.597168,  0.685059,1478545212.475
 -0.195313,  0.594238,  0.684082,1478545212.496
 -0.194336,  0.585938,  0.685547,1478545212.514
 -0.195313,  0.589355,  0.688477,1478545212.536
 -0.200195,  0.593262,  0.681641,1478545212.597
 -0.198730,  0.597656,  0.676270,1478545212.597
 -0.201172,  0.601074,  0.681152,1478545212.597
 -0.197266,  0.590820,  0.688965,1478545212.616
 -0.199707,  0.591797,  0.681641,1478545212.642
 -0.196289,  0.590820,  0.686523,1478545212.655
 -0.192871,  0.597168,  0.691406,1478545212.685
 -0.193848,  0.592285,  0.684082,1478545212.694
 -0.193359,  0.593262,  0.689941,1478545212.722
 -0.196289,  0.597168,  0.679199,1478545212.736
 -0.198730,  0.597168,  0.687988,1478545212.755
 -0.199707,  0.597168,  0.677734,1478545212.777
 -0.196777,  0.590820,  0.683594,1478545212.796
 -0.195313,  0.590332,  0.684570,1478545212.814
 -0.195313,  0.596680,  0.684082,1478545212.843
 -0.194824,  0.597656,  0.684082,1478545212.856
 -0.197266,  0.597656,  0.681152,1478545212.874
 -0.193359,  0.591797,  0.684570,1478545212.896
 -0.196777,  0.591797,  0.684570,1478545212.919
 -0.195313,  0.589844,  0.687012,1478545212.934
 -0.195801,  0.594238,  0.687012,1478545212.957
 -0.195313,  0.600586,  0.688965,1478545212.976
 -0.191406,  0.601074,  0.680176,1478545213.000
 -0.191895,  0.595703,  0.689941,1478545213.016
 -0.191895,  0.592773,  0.686035,1478545213.036
 -0.198730,  0.599609,  0.684570,1478545213.054
 -0.194824,  0.596191,  0.688965,1478545213.076
 -0.195313,  0.596191,  0.684570,1478545213.096
 -0.195313,  0.595215,  0.686035,1478545213.146
 -0.189941,  0.598145,  0.681641,1478545213.150
 -0.191895,  0.594727,  0.675293,1478545213.156
 -0.198242,  0.591797,  0.684570,1478545213.195
 -0.196777,  0.593262,  0.681152,1478545213.198
 -0.194336,  0.597168,  0.686523,1478545213.216
 -0.195313,  0.599609,  0.688477,1478545213.242
 -0.193848,  0.600098,  0.684570,1478545213.264
 -0.192383,  0.594238,  0.682617,1478545213.279
 -0.188477,  0.591797,  0.686035,1478545213.294
 -0.192871,  0.593262,  0.683594,1478545213.321
 -0.195313,  0.603027,  0.688477,1478545213.336
 -0.192871,  0.598633,  0.682129,1478545213.354
 -0.193359,  0.597168,  0.687988,1478545213.376
 -0.194824,  0.595703,  0.680176,1478545213.397
 -0.196777,  0.596191,  0.683594,1478545213.427
 -0.193359,  0.593750,  0.679199,1478545213.436
 -0.193359,  0.596191,  0.687012,1478545213.475
 -0.198730,  0.597656,  0.683594,1478545213.479
 -0.195801,  0.595215,  0.681641,1478545213.511
 -0.193848,  0.596680,  0.677246,1478545213.516
 -0.197754,  0.594238,  0.681641,1478545213.533
 -0.194824,  0.592285,  0.681152,1478545213.556
 -0.200195,  0.595215,  0.681641,1478545213.577
 -0.191895,  0.593750,  0.688965,1478545213.600
 -0.191895,  0.592773,  0.683594,1478545213.615
 -0.193359,  0.593262,  0.676270,1478545213.644
 -0.197266,  0.593750,  0.682617,1478545213.653
 -0.190918,  0.600098,  0.687500,1478545213.675
 -0.197754,  0.593750,  0.685547,1478545213.707
 -0.193848,  0.593262,  0.681641,1478545213.713
 -0.194824,  0.599121,  0.681152,1478545213.750
 -0.194824,  0.596191,  0.685547,1478545213.758
 -0.195313,  0.597656,  0.682617,1478545213.773
 -0.195801,  0.596680,  0.687988,1478545213.796
 -0.197754,  0.595703,  0.687012,1478545213.818
 -0.189453,  0.598633,  0.681641,1478545213.833
 -0.195801,  0.593750,  0.679688,1478545213.856
 -0.191406,  0.595703,  0.678711,1478545213.879
 -0.194824,  0.596680,  0.682617,1478545213.892
 -0.196777,  0.594238,  0.684570,1478545213.922
 -0.199219,  0.600098,  0.680176,1478545213.938
 -0.194824,  0.598633,  0.687012,1478545213.952
 -0.196777,  0.591797,  0.684082,1478545213.983
 -0.190430,  0.597168,  0.688477,1478545213.998
 -0.200195,  0.595703,  0.685059,1478545214.028
 -0.196777,  0.592285,  0.679199,1478545214.035
 -0.199219,  0.599121,  0.678711,1478545214.073
 -0.201660,  0.591309,  0.678223,1478545214.075
 -0.195313,  0.592773,  0.684082,1478545214.096
 -0.191895,  0.596680,  0.683105,1478545214.118
 -0.197266,  0.597656,  0.680176,1478545214.141
 -0.199219,  0.600098,  0.687988,1478545214.155
 -0.191895,  0.596191,  0.681152,1478545214.178
 -0.195313,  0.594727,  0.683594,1478545214.200
 -0.196289,  0.593750,  0.685059,1478545214.215
 -0.190918,  0.596191,  0.689453,1478545214.261
 -0.193359,  0.593750,  0.687988,1478545214.264
 -0.194336,  0.597656,  0.675781,1478545214.275
 -0.196777,  0.593262,  0.687500,1478545214.306
 -0.197266,  0.595215,  0.679688,1478545214.319
 -0.192871,  0.600586,  0.687988,1478545214.343
 -0.197754,  0.600586,  0.679688,1478545214.358
 -0.198730,  0.600586,  0.681152,1478545214.387
 -0.196289,  0.598145,  0.681152,1478545214.396
 -0.195801,  0.599121,  0.682617,1478545214.419
 -0.194336,  0.596680,  0.687988,1478545214.439
 -0.191895,  0.589844,  0.689941,1478545214.456
 -0.194824,  0.594727,  0.679199,1478545214.479
 -0.195313,  0.598633,  0.681641,1478545214.499
 -0.194824,  0.599609,  0.681641,1478545214.539
 -0.192871,  0.602539,  0.684570,1478545214.541
 -0.192383,  0.591797,  0.681641,1478545214.584
 -0.196777,  0.594238,  0.684570,1478545214.586
 -0.193848,  0.598145,  0.689453,1478545214.598
 -0.199707,  0.602051,  0.684082,1478545214.619
 -0.193359,  0.594238,  0.689941,1478545214.635
 -0.192383,  0.596191,  0.683105,1478545214.665
 -0.198242,  0.597168,  0.681641,1478545214.680
 -0.192871,  0.603027,  0.679199,1478545214.695
 -0.195801,  0.594238,  0.680176,1478545214.718
 -0.193848,  0.598145,  0.675781,1478545214.740
 -0.190918,  0.598145,  0.683105,1478545214.756
 -0.198242,  0.591309,  0.683105,1478545214.778
 -0.198730,  0.591797,  0.685059,1478545214.816
 -0.200684,  0.600098,  0.685547,1478545214.838
 -0.194336,  0.599121,  0.687988,1478545214.863
 -0.196777,  0.592773,  0.689453,1478545214.867
 -0.194336,  0.592773,  0.687988,1478545214.875
 -0.193848,  0.596680,  0.687988,1478545214.904
 -0.192383,  0.593262,  0.684570,1478545214.921
 -0.197266,  0.592773,  0.683594,1478545214.943
 -0.197754,  0.595703,  0.687012,1478545214.958
 -0.189941,  0.598633,  0.680176,1478545214.987
 -0.193359,  0.601563,  0.680176,1478545214.995
 -0.194336,  0.600098,  0.680176,1478545215.018
 -0.197266,  0.597168,  0.682617,1478545215.040
 -0.188477,  0.597168,  0.683105,1478545215.055
 -0.190918,  0.596680,  0.679688,1478545215.102
 -0.197754,  0.596680,  0.682617,1478545215.107
 -0.194336,  0.599609,  0.687012,1478545215.139
 -0.199219,  0.596191,  0.679199,1478545215.141
 -0.197754,  0.600586,  0.681152,1478545215.161
 -0.196777,  0.594727,  0.679199,1478545215.183
 -0.195313,  0.599121,  0.677734,1478545215.198
 -0.195801,  0.599121,  0.682617,1478545215.220
 -0.195313,  0.599121,  0.673340,1478545215.249
 -0.195801,  0.597656,  0.675293,1478545215.265
 -0.194824,  0.596680,  0.684082,1478545215.280
 -0.198242,  0.600098,  0.684570,1478545215.309
 -0.194336,  0.593750,  0.678711,1478545215.318
 -0.195801,  0.593750,  0.689941,1478545215.340
 -0.193848,  0.600098,  0.680664,1478545215.369
 -0.193848,  0.601074,  0.679688,1478545215.402
 -0.194824,  0.595703,  0.680176,1478545215.416
 -0.192871,  0.602051,  0.684082,1478545215.422
 -0.195313,  0.601074,  0.685547,1478545215.452
 -0.200684,  0.597656,  0.678223,1478545215.461
 -0.203125,  0.598633,  0.688965,1478545215.482
 -0.182617,  0.595703,  0.695313,1478545215.498
 -0.194824,  0.598145,  0.694824,1478545215.520
 -0.208984,  0.602539,  0.685547,1478545215.543
 -0.207031,  0.600586,  0.690430,1478545215.558
 -0.199219,  0.605469,  0.683105,1478545215.588
 -0.197754,  0.610840,  0.674316,1478545215.602
 -0.198242,  0.599121,  0.660156,1478545215.618
 -0.205566,  0.611816,  0.663086,1478545215.648
 -0.223633,  0.626953,  0.661621,1478545215.663
 -0.228516,  0.644043,  0.677734,1478545215.693
 -0.218750,  0.635742,  0.683105,1478545215.700
 -0.205078,  0.605469,  0.679199,1478545215.739
 -0.199707,  0.571289,  0.698730,1478545215.745
 -0.211426,  0.580078,  0.704102,1478545215.767
 -0.229980,  0.583008,  0.723145,1478545215.783
 -0.251465,  0.553711,  0.789551,1478545215.804
 -0.252441,  0.539063,  0.729492,1478545215.821
 -0.356934,  0.649414,  0.588379,1478545215.843
 -0.587891,  0.907715,  0.641602,1478545215.865
 -0.796387,  1.410156,  0.580078,1478545215.880
 -0.503418,  1.091309,  0.622559,1478545215.909
 -0.273926,  1.000488,  0.679688,1478545215.926
 -0.156738,  0.914063,  0.702637,1478545215.978
 -0.242676,  0.917969,  0.691406,1478545215.978
 -0.200684,  0.945313,  0.622559,1478545215.984
 -0.060547,  0.820313,  0.554199,1478545216.001
  0.046875,  0.737305,  0.494141,1478545216.023
  0.145996,  0.729492,  0.468262,1478545216.044
  0.215820,  0.808105,  0.392578,1478545216.061
  0.330566,  0.875977,  0.264648,1478545216.107
  0.417480,  0.859863,  0.177734,1478545216.112
  0.419922,  0.852051,  0.216309,1478545216.120
  0.384277,  0.870117,  0.292969,1478545216.143
  0.394043,  0.671875,  0.359375,1478545216.164
  0.472656,  0.428711,  0.337402,1478545216.180
  0.593750,  0.424316,  0.238281,1478545216.203
  0.657227,  0.574219,  0.149414,1478545216.224
  0.622070,  0.690918,  0.109863,1478545216.248
  0.574707,  0.784668,  0.115723,1478545216.263
  0.531250,  0.659180,  0.244141,1478545216.284
  0.489746,  0.454102,  0.360352,1478545216.300
  0.502441,  0.397461,  0.324219,1478545216.323
  0.487305,  0.514160,  0.275391,1478545216.344
  0.506836,  0.642578,  0.187500,1478545216.360
  0.572754,  0.680664,  0.151855,1478545216.383
  0.635254,  0.604492,  0.190430,1478545216.404
  0.626953,  0.531250,  0.222656,1478545216.420
  0.626465,  0.545410,  0.248535,1478545216.443
  0.685547,  0.569336,  0.260254,1478545216.464
  0.728516,  0.504395,  0.291016,1478545216.480
  0.772949,  0.435547,  0.274414,1478545216.528
  0.798340,  0.459473,  0.282715,1478545216.528
  0.685059,  0.594238,  0.295898,1478545216.540
  0.523438,  0.645996,  0.270020,1478545216.563
  0.548828,  0.597168,  0.276855,1478545216.586
  0.680664,  0.485352,  0.273926,1478545216.600
  0.661621,  0.460449,  0.222168,1478545216.623
  0.657715,  0.546387,  0.225586,1478545216.645
  0.711426,  0.614746,  0.294922,1478545216.660
  0.705078,  0.649902,  0.369629,1478545216.683
  0.708984,  0.649414,  0.467773,1478545216.705
  0.718262,  0.556641,  0.472656,1478545216.726
  0.723145,  0.482910,  0.416992,1478545216.743
  0.769043,  0.541992,  0.327148,1478545216.765
  0.777832,  0.652832,  0.257813,1478545216.786
  0.811035,  0.666016,  0.297852,1478545216.803
  0.788574,  0.609863,  0.358398,1478545216.825
  0.739258,  0.506836,  0.361328,1478545216.848
  0.680176,  0.500488,  0.314941,1478545216.863
  0.690918,  0.534668,  0.242676,1478545216.885
  0.797852,  0.597168,  0.219238,1478545216.914
  0.718262,  0.617188,  0.262695,1478545216.923
  0.599609,  0.552734,  0.333008,1478545216.946
  0.590332,  0.513672,  0.347168,1478545216.967
  0.632813,  0.512695,  0.307617,1478545216.983
  0.694336,  0.544434,  0.259277,1478545217.006
  0.738770,  0.599609,  0.234863,1478545217.034
  0.714355,  0.603027,  0.224121,1478545217.043
  0.654785,  0.588379,  0.242188,1478545217.065
  0.697754,  0.550293,  0.285645,1478545217.087
  0.726563,  0.542480,  0.297363,1478545217.094
  0.679199,  0.582520,  0.300781,1478545217.108
  0.614258,  0.639160,  0.326172,1478545217.131
  0.576172,  0.651855,  0.347168,1478545217.153
  0.520508,  0.616699,  0.403809,1478545217.168
  0.471680,  0.611328,  0.401855,1478545217.191
  0.421387,  0.652832,  0.369141,1478545217.213
  0.494629,  0.650879,  0.350098,1478545217.228
  0.609375,  0.631348,  0.356934,1478545217.251
  0.605957,  0.593262,  0.392090,1478545217.273
  0.521484,  0.604492,  0.475586,1478545217.288
  0.542969,  0.648926,  0.535645,1478545217.314
  0.585449,  0.622070,  0.487305,1478545217.335
  0.589355,  0.549805,  0.445313,1478545217.356
  0.560059,  0.419434,  0.425781,1478545217.371
  0.535156,  0.363770,  0.386719,1478545217.393
  0.562500,  0.369629,  0.399902,1478545217.408
  0.558594,  0.275879,  0.384766,1478545217.431
  0.549805,  0.161133,  0.380371,1478545217.453
  0.571777,  0.139160,  0.416504,1478545217.469
  0.544922,  0.188477,  0.406738,1478545217.508
  0.501953,  0.312500,  0.516113,1478545217.515
  0.361816,  0.254883,  0.702148,1478545217.528
  0.162598,  0.299316,  0.724609,1478545217.551
  0.029785,  0.589355,  0.536133,1478545217.593
 -0.062500,  1.227051,  0.509766,1478545217.598
 -0.330078,  1.707520,  0.523926,1478545217.668
 -0.446289,  1.497559,  0.517090,1478545217.668
 -0.335449,  0.988770,  0.554688,1478545217.668
 -0.387695,  0.885742,  0.665527,1478545217.687
 -0.597656,  0.868164,  0.672363,1478545217.693
 -0.765137,  0.925781,  0.592285,1478545217.708
 -0.590332,  1.083496,  0.563477,1478545217.731
 -0.362305,  0.979004,  0.590820,1478545217.755
 -0.206543,  0.669922,  0.640625,1478545217.771
 -0.132813,  0.524414,  0.666992,1478545217.791
 -0.122070,  0.491211,  0.637695,1478545217.816
 -0.118164,  0.444336,  0.635742,1478545217.828
 -0.195801,  0.546387,  0.701660,1478545217.870
 -0.279297,  0.522461,  0.707520,1478545217.875
 -0.286621,  0.527344,  0.753418,1478545217.913
 -0.307617,  0.501953,  0.746582,1478545217.915
 -0.256836,  0.630371,  0.796875,1478545217.928
 -0.233887,  0.587891,  0.807617,1478545217.948
 -0.220215,  0.630371,  0.855957,1478545217.971
 -0.251465,  0.609375,  0.761230,1478545217.993
 -0.189941,  0.568359,  0.631348,1478545218.008
 -0.192871,  0.593262,  0.553223,1478545218.032
 -0.299805,  0.720215,  0.558105,1478545218.049
 -0.399414,  0.675293,  0.694336,1478545218.068
 -0.395996,  0.540527,  0.759766,1478545218.091
 -0.253418,  0.449707,  0.727051,1478545218.109
 -0.197266,  0.455078,  0.726563,1478545218.130
 -0.212402,  0.508301,  0.725098,1478545218.151
 -0.181152,  0.562500,  0.692383,1478545218.176
 -0.182617,  0.630859,  0.679199,1478545218.191
 -0.213867,  0.639648,  0.667480,1478545218.218
 -0.229492,  0.628906,  0.678223,1478545218.229
 -0.240234,  0.597656,  0.717285,1478545218.268
 -0.247559,  0.551758,  0.734863,1478545218.271
 -0.229004,  0.539551,  0.755371,1478545218.289
 -0.210449,  0.527832,  0.752441,1478545218.311
 -0.202637,  0.541016,  0.748047,1478545218.331
 -0.209473,  0.557617,  0.728516,1478545218.349
 -0.210938,  0.566895,  0.706543,1478545218.370
 -0.208984,  0.592285,  0.694824,1478545218.391
 -0.220703,  0.606445,  0.684082,1478545218.408
 -0.242676,  0.585938,  0.688477,1478545218.430
 -0.244629,  0.549805,  0.700195,1478545218.453
 -0.255859,  0.541504,  0.689941,1478545218.468
 -0.252441,  0.548340,  0.684082,1478545218.491
 -0.242188,  0.563477,  0.672852,1478545218.511
 -0.238770,  0.585938,  0.676758,1478545218.529
 -0.236328,  0.595215,  0.675293,1478545218.551
 -0.237305,  0.571289,  0.688477,1478545218.571
 -0.241211,  0.582031,  0.697754,1478545218.589
 -0.245117,  0.566895,  0.677734,1478545218.611
 -0.245605,  0.558594,  0.691406,1478545218.631
 -0.253906,  0.561035,  0.684082,1478545218.649
 -0.243164,  0.576660,  0.692871,1478545218.670
 -0.236328,  0.591797,  0.706055,1478545218.698
 -0.243164,  0.573242,  0.683105,1478545218.709
 -0.248535,  0.568359,  0.694824,1478545218.731
 -0.244629,  0.574707,  0.678711,1478545218.751
 -0.241211,  0.582031,  0.687500,1478545218.776
 -0.249512,  0.604980,  0.694824,1478545218.791
 -0.245117,  0.596191,  0.673340,1478545218.861
 -0.244629,  0.569824,  0.674316,1478545218.861
 -0.250977,  0.580566,  0.677734,1478545218.861
 -0.250000,  0.585449,  0.678711,1478545218.872
 -0.244629,  0.571777,  0.679688,1478545218.888
 -0.230957,  0.583008,  0.686523,1478545218.910
 -0.229004,  0.600586,  0.694336,1478545218.931
 -0.237793,  0.593262,  0.675781,1478545218.948
 -0.249023,  0.587402,  0.684082,1478545218.978
 -0.266113,  0.578613,  0.694824,1478545218.991
 -0.266602,  0.569824,  0.690430,1478545219.008
 -0.259766,  0.570313,  0.692383,1478545219.031
 -0.272461,  0.572266,  0.677246,1478545219.053
 -0.234375,  0.533691,  0.663086,1478545219.068
 -0.250000,  0.552246,  0.705566,1478545219.097
 -0.262207,  0.579590,  0.681641,1478545219.112
 -0.246094,  0.546875,  0.665527,1478545219.142
 -0.272949,  0.547852,  0.691406,1478545219.150
 -0.271484,  0.567871,  0.670410,1478545219.172
 -0.255371,  0.584473,  0.689941,1478545219.194
 -0.250977,  0.596191,  0.688965,1478545219.210
 -0.240723,  0.607910,  0.696289,1478545219.239
 -0.235840,  0.604492,  0.707520,1478545219.255
 -0.236816,  0.582031,  0.688965,1478545219.270
 -0.241211,  0.561523,  0.672852,1478545219.291
 -0.247559,  0.583496,  0.676270,1478545219.308
 -0.261230,  0.609375,  0.661133,1478545219.331
 -0.265137,  0.619629,  0.665039,1478545219.352
 -0.260742,  0.586426,  0.668945,1478545219.375
 -0.246094,  0.562988,  0.672363,1478545219.390
 -0.256348,  0.571289,  0.672852,1478545219.419
 -0.256836,  0.592285,  0.676270,1478545219.427
 -0.248535,  0.601563,  0.664551,1478545219.450
 -0.241211,  0.599609,  0.679688,1478545219.473
 -0.242188,  0.600586,  0.677734,1478545219.488
 -0.246582,  0.600098,  0.684082,1478545219.518
 -0.252441,  0.572754,  0.668457,1478545219.533
 -0.268555,  0.548340,  0.660156,1478545219.548
 -0.274902,  0.556152,  0.657715,1478545219.578
 -0.277344,  0.583496,  0.647461,1478545219.593
 -0.271973,  0.586914,  0.650391,1478545219.608
 -0.251953,  0.588379,  0.662109,1478545219.631
 -0.245605,  0.607422,  0.671875,1478545219.654
 -0.246094,  0.607422,  0.690918,1478545219.667
 -0.241699,  0.585449,  0.681152,1478545219.698
 -0.239746,  0.576172,  0.677246,1478545219.713
 -0.247559,  0.594727,  0.677246,1478545219.727
 -0.267578,  0.621094,  0.676758,1478545219.751
 -0.271973,  0.606934,  0.668457,1478545219.773
 -0.260742,  0.586914,  0.670898,1478545219.787
 -0.260254,  0.583496,  0.664551,1478545219.811
 -0.247559,  0.598145,  0.665039,1478545219.834
 -0.248047,  0.583984,  0.652832,1478545219.855
 -0.246094,  0.573242,  0.657715,1478545219.870
 -0.270508,  0.595703,  0.670898,1478545219.893
 -0.262207,  0.607422,  0.669434,1478545219.907
 -0.251953,  0.596680,  0.681152,1478545219.930
 -0.241211,  0.594727,  0.678711,1478545219.953
 -0.236816,  0.601074,  0.680664,1478545219.974
 -0.248535,  0.595703,  0.680176,1478545219.990
 -0.257324,  0.573730,  0.675781,1478545220.027
 -0.263672,  0.572266,  0.672852,1478545220.034
 -0.261719,  0.578613,  0.668457,1478545220.050
 -0.255859,  0.584473,  0.664551,1478545220.073
 -0.249512,  0.578613,  0.670410,1478545220.094
 -0.254883,  0.584473,  0.675781,1478545220.118
 -0.250488,  0.586426,  0.667480,1478545220.133
 -0.254395,  0.588867,  0.671875,1478545220.162
 -0.260742,  0.597656,  0.678223,1478545220.170
 -0.256348,  0.591309,  0.668457,1478545220.193
 -0.251953,  0.581055,  0.673828,1478545220.215
 -0.267090,  0.580078,  0.673340,1478545220.230
 -0.269531,  0.576172,  0.675293,1478545220.261
 -0.264160,  0.566406,  0.679199,1478545220.274
 -0.260742,  0.587402,  0.689453,1478545220.290
 -0.250488,  0.596680,  0.685059,1478545220.313
 -0.234375,  0.583008,  0.683105,1478545220.334
 -0.237305,  0.580566,  0.690430,1478545220.351
 -0.252930,  0.588379,  0.679199,1478545220.373
 -0.254883,  0.583984,  0.669434,1478545220.396
 -0.256836,  0.574219,  0.670898,1478545220.410
 -0.261719,  0.571289,  0.662109,1478545220.446
 -0.264160,  0.575684,  0.659668,1478545220.455
 -0.257813,  0.579590,  0.679688,1478545220.469
 -0.264648,  0.580566,  0.678223,1478545220.493
 -0.258301,  0.599121,  0.692383,1478545220.539
 -0.262207,  0.597168,  0.694336,1478545220.544
 -0.247559,  0.577637,  0.693848,1478545220.553
 -0.245605,  0.569824,  0.687500,1478545220.583
 -0.260254,  0.586914,  0.678711,1478545220.590
 -0.265625,  0.588867,  0.677734,1478545220.613
 -0.260742,  0.584961,  0.677246,1478545220.635
 -0.265625,  0.563965,  0.672852,1478545220.650
 -0.262695,  0.552246,  0.672852,1478545220.688
 -0.267578,  0.567871,  0.666016,1478545220.695
 -0.268555,  0.596191,  0.672363,1478545220.725
 -0.262207,  0.592285,  0.657227,1478545220.733
 -0.240723,  0.564941,  0.669922,1478545220.771
 -0.246094,  0.563477,  0.674316,1478545220.777
 -0.262695,  0.576660,  0.677246,1478545220.816
 -0.273438,  0.594727,  0.680176,1478545220.818
 -0.265625,  0.592285,  0.685059,1478545220.830
 -0.266113,  0.573730,  0.698242,1478545220.860
 -0.257813,  0.576172,  0.694824,1478545220.875
 -0.247070,  0.591309,  0.690918,1478545220.904
 -0.242188,  0.583008,  0.673828,1478545220.920
 -0.241699,  0.582520,  0.672363,1478545220.935
 -0.259277,  0.591309,  0.673828,1478545220.956
 -0.262207,  0.602539,  0.680664,1478545220.973
 -0.249023,  0.581543,  0.664063,1478545220.996
 -0.258789,  0.565918,  0.672852,1478545221.016
 -0.263672,  0.582520,  0.674316,1478545221.048
 -0.267090,  0.591309,  0.671875,1478545221.055
 -0.256348,  0.574707,  0.675293,1478545221.094
 -0.257813,  0.570801,  0.680664,1478545221.096
 -0.251953,  0.569824,  0.680176,1478545221.116
 -0.253906,  0.585938,  0.676270,1478545221.138
 -0.263184,  0.575195,  0.676758,1478545221.153
 -0.260254,  0.571777,  0.686523,1478545221.184
 -0.256348,  0.583496,  0.687500,1478545221.205
 -0.247559,  0.572754,  0.680176,1478545221.213
 -0.243652,  0.573242,  0.691406,1478545221.243
 -0.248535,  0.592773,  0.677246,1478545221.257
 -0.259766,  0.604492,  0.682617,1478545221.280
 -0.256348,  0.573242,  0.676758,1478545221.295
 -0.245117,  0.556152,  0.671875,1478545221.325
 -0.256836,  0.548828,  0.676270,1478545221.333
 -0.268555,  0.570801,  0.680664,1478545221.372
 -0.275879,  0.590820,  0.685547,1478545221.378
 -0.264160,  0.579590,  0.688965,1478545221.393
 -0.259766,  0.560547,  0.692383,1478545221.415
 -0.253418,  0.566895,  0.708984,1478545221.438
 -0.243652,  0.566895,  0.689941,1478545221.460
 -0.248535,  0.568359,  0.698730,1478545221.475
 -0.259766,  0.562012,  0.678223,1478545221.498
 -0.264648,  0.570313,  0.677734,1478545221.520
 -0.256348,  0.580566,  0.677734,1478545221.535
 -0.237305,  0.581543,  0.671387,1478545221.558
 -0.249023,  0.580566,  0.687012,1478545221.572
 -0.249512,  0.569824,  0.691406,1478545221.595
 -0.258301,  0.575195,  0.692871,1478545221.618
 -0.263672,  0.576660,  0.682129,1478545221.632
 -0.266602,  0.574707,  0.688477,1478545221.655
 -0.265625,  0.571289,  0.698730,1478545221.678
 -0.265625,  0.558105,  0.707520,1478545221.692
 -0.254395,  0.576660,  0.707031,1478545221.716
 -0.243652,  0.579102,  0.702637,1478545221.738
 -0.250977,  0.543457,  0.681152,1478545221.788
 -0.234375,  0.528809,  0.672852,1478545221.789
 -0.244629,  0.565918,  0.672852,1478545221.798
 -0.267578,  0.604492,  0.681641,1478545221.812
 -0.265625,  0.576660,  0.688965,1478545221.835
 -0.257324,  0.544922,  0.699219,1478545221.858
 -0.256348,  0.535645,  0.696289,1478545221.879
 -0.268555,  0.556152,  0.698242,1478545221.895
 -0.268066,  0.578613,  0.694336,1478545221.918
 -0.255859,  0.583008,  0.697754,1478545221.939
 -0.244629,  0.569336,  0.692383,1478545221.955
 -0.248535,  0.577637,  0.705566,1478545221.978
 -0.267578,  0.561523,  0.690430,1478545221.999
 -0.262695,  0.542480,  0.687012,1478545222.016
 -0.262695,  0.552246,  0.680664,1478545222.038
 -0.269043,  0.571777,  0.686035,1478545222.060
 -0.269531,  0.571777,  0.686035,1478545222.075
 -0.255371,  0.558594,  0.695313,1478545222.104
 -0.244141,  0.552246,  0.690430,1478545222.119
 -0.244629,  0.558105,  0.694336,1478545222.136
 -0.243164,  0.561035,  0.686523,1478545222.158
 -0.253906,  0.565430,  0.687500,1478545222.179
 -0.253906,  0.566895,  0.689941,1478545222.196
 -0.252441,  0.557617,  0.683105,1478545222.218
 -0.248535,  0.553711,  0.682129,1478545222.239
 -0.243164,  0.574707,  0.688965,1478545222.255
 -0.258301,  0.593750,  0.687012,1478545222.278
 -0.257813,  0.575684,  0.682617,1478545222.308
 -0.252930,  0.549316,  0.684570,1478545222.322
 -0.250488,  0.549805,  0.673340,1478545222.338
 -0.247070,  0.573242,  0.681152,1478545222.360
 -0.253418,  0.607422,  0.704590,1478545222.383
 -0.239746,  0.598145,  0.674316,1478545222.398
 -0.234375,  0.547852,  0.704102,1478545222.426
 -0.226074,  0.513672,  0.754883,1478545222.435
 -0.217285,  0.553711,  0.722656,1478545222.471
 -0.236328,  0.655273,  0.689941,1478545222.480
 -0.246582,  0.673340,  0.675293,1478545222.501
 -0.228516,  0.599121,  0.667969,1478545222.508
 -0.224121,  0.556152,  0.673340,1478545222.525
 -0.240234,  0.567383,  0.691406,1478545222.546
 -0.234375,  0.570313,  0.653320,1478545222.563
 -0.223145,  0.571289,  0.664551,1478545222.586
 -0.252441,  0.624512,  0.681152,1478545222.614
 -0.252441,  0.598633,  0.648926,1478545222.629
 -0.240723,  0.540527,  0.680176,1478545222.643
 -0.253906,  0.571777,  0.706055,1478545222.666
 -0.222168,  0.585449,  0.687988,1478545222.682
 -0.212402,  0.590820,  0.704102,1478545222.707
 -0.242676,  0.588867,  0.710938,1478545222.726
 -0.236328,  0.547852,  0.691895,1478545222.748
 -0.240234,  0.545410,  0.689941,1478545222.763
 -0.247070,  0.587402,  0.701172,1478545222.787
 -0.241211,  0.591797,  0.683105,1478545222.803
 -0.230469,  0.585938,  0.700684,1478545222.824
 -0.224121,  0.579590,  0.702637,1478545222.846
 -0.229492,  0.566895,  0.677246,1478545222.864
 -0.239746,  0.577637,  0.692383,1478545222.902
 -0.229980,  0.584961,  0.688477,1478545222.909
 -0.224609,  0.567871,  0.688477,1478545222.922
 -0.229980,  0.576172,  0.689453,1478545222.943
 -0.228516,  0.562988,  0.687012,1478545222.966
 -0.235840,  0.567383,  0.678223,1478545222.982
 -0.255371,  0.574707,  0.674316,1478545223.003
 -0.253418,  0.567871,  0.680176,1478545223.029
 -0.237793,  0.569336,  0.688477,1478545223.042
 -0.220215,  0.604004,  0.693848,1478545223.063
 -0.226074,  0.602051,  0.691406,1478545223.086
 -0.223633,  0.560547,  0.697754,1478545223.102
 -0.226074,  0.548340,  0.710449,1478545223.124
 -0.235352,  0.584473,  0.715332,1478545223.145
 -0.228027,  0.611328,  0.690918,1478545223.168
 -0.213867,  0.549805,  0.680664,1478545223.186
 -0.234375,  0.551270,  0.688477,1478545223.213
 -0.245117,  0.601563,  0.659180,1478545223.224
 -0.263184,  0.567383,  0.674316,1478545223.243
 -0.281250,  0.535645,  0.739746,1478545223.266
 -0.224609,  0.514648,  0.737793,1478545223.284
 -0.201172,  0.518066,  0.700684,1478545223.305
 -0.211426,  0.555664,  0.695313,1478545223.326
 -0.233398,  0.581055,  0.687988,1478545223.344
 -0.237305,  0.588379,  0.689941,1478545223.363
 -0.234863,  0.518066,  0.676270,1478545223.386
 -0.250977,  0.524414,  0.670898,1478545223.404
 -0.258301,  0.603516,  0.665527,1478545223.423
