   -1.2500,   -0.5625,    0.3125,1478545178.201
   -3.3750,   -0.8125,    0.6875,1478545178.231
    3.5000,   -0.8125,    0.5625,1478545178.244
    8.7500,   -0.6875,    0.0625,1478545178.262
    8.9375,   -0.9375,    0.4375,1478545178.283
    7.6875,   -1.3125,    0.2500,1478545178.306
    8.3125,   -0.6250,    0.5625,1478545178.321
    4.4375,    0.3125,    1.4375,1478545178.352
    3.1875,    0.8750,    1.0000,1478545178.365
   -2.1875,    1.0000,    0.8125,1478545178.382
   -3.8750,    0.2500,   -0.0625,1478545178.404
   -1.9375,    0.0625,   -0.8125,1478545178.425
   -0.2500,    0.0000,   -0.0625,1478545178.449
    0.5625,    0.5000,    0.2500,1478545178.466
    1.3125,    1.0625,   -0.1250,1478545178.485
   -0.4375,    0.5000,    0.0625,1478545178.509
   -0.5625,    0.6250,   -0.1250,1478545178.524
   -2.1250,    0.8125,    0.4375,1478545178.545
   -0.8750,    0.9375,   -0.0625,1478545178.562
   -2.7500,    1.0625,    0.3750,1478545178.584
   -0.6250,    0.5625,    0.3125,1478545178.605
    1.3750,   -0.1250,    0.1250,1478545178.628
    2.4375,   -0.2500,   -0.1875,1478545178.643
    1.0000,   -0.1875,    0.1875,1478545178.666
    1.5625,   -0.2500,    0.3750,1478545178.681
    1.2500,   -0.3750,    0.1250,1478545178.703
    1.6250,   -0.1250,    0.3750,1478545178.726
    2.0000,   -0.1250,    0.5625,1478545178.742
    1.8750,    0.1250,    0.8125,1478545178.765
    0.3750,    0.1250,    0.0000,1478545178.786
   -0.2500,   -0.2500,   -0.1250,1478545178.800
    1.5625,   -0.5000,   -0.0625,1478545178.823
    2.8125,   -0.3750,    0.0625,1478545178.846
    1.1250,    0.0625,    0.1250,1478545178.861
    0.5625,    0.6250,    0.1250,1478545178.884
   -1.0625,    0.5625,    0.2500,1478545178.912
    0.1250,    0.0625,   -0.1250,1478545178.920
    1.1875,   -0.1250,    0.0000,1478545178.944
    0.7500,    0.0000,   -0.0625,1478545178.966
    0.5625,    0.2500,    0.2500,1478545178.980
    0.3125,    0.3125,    0.3125,1478545179.004
    0.1250,    0.1250,    0.2500,1478545179.776
   -0.6875,    0.1875,    0.1875,1478545179.778
    0.5000,    0.0000,   -0.0625,1478545179.778
    1.2500,   -0.1875,   -0.0625,1478545179.778
    1.0000,   -0.0625,    0.0000,1478545179.778
    1.3125,   -0.4375,    0.0000,1478545179.779
    1.6250,   -0.4375,   -0.1250,1478545179.779
    0.6875,   -0.5625,    0.0000,1478545179.779
    0.3750,   -0.3125,   -0.0625,1478545179.780
   -0.6875,   -0.3750,    0.0000,1478545179.780
   -1.0625,   -0.1250,   -0.0625,1478545179.780
    0.0625,    0.2500,    0.1250,1478545179.780
   -0.6250,    0.1250,    0.0000,1478545179.780
    1.5625,    2.3125,   -1.0000,1478545179.780
    0.8125,    1.1250,   -0.9375,1478545179.784
    1.1250,    1.7500,    0.3750,1478545179.786
   -6.2500,    0.5625,   -0.3750,1478545179.786
   -4.1875,   -0.1250,   -0.3750,1478545179.786
    0.3750,   -0.3750,   -0.2500,1478545179.786
    2.6875,   -0.5625,   -0.2500,1478545179.786
    1.0000,   -1.1875,    0.0625,1478545179.786
    0.9375,   -0.9375,    0.1875,1478545179.786
    1.1875,   -0.2500,    0.5000,1478545179.786
   -0.6250,    0.0625,    0.3750,1478545179.786
   -1.2500,    0.0625,    0.1875,1478545179.787
   -0.1875,   -0.2500,    0.1250,1478545179.787
    0.4375,   -0.6250,    0.0625,1478545179.787
    0.8750,   -0.3750,    0.0000,1478545179.787
    1.6875,   -0.4375,   -0.1250,1478545179.788
    2.3125,   -0.4375,    0.2500,1478545179.789
    4.0625,   -0.4375,    0.1250,1478545179.789
    4.6875,   -0.4375,    0.5000,1478545179.789
    3.9375,   -0.2500,    0.3125,1478545179.789
    1.3125,   -0.2500,    0.3750,1478545179.790
   -0.6250,    0.0000,    0.5000,1478545179.790
   -1.3750,    0.1250,    0.1875,1478545179.790
   -0.8750,    0.0000,    0.4375,1478545179.790
    0.1250,    0.1875,    0.1875,1478545179.790
   -0.1250,    0.1875,    0.2500,1478545179.790
    0.7500,    0.6250,    0.4375,1478545179.790
    0.0000,    0.7500,    0.3750,1478545179.811
   -0.1250,    0.2500,    0.1875,1478545179.835
    0.8750,   -0.1250,    0.1250,1478545179.850
    1.2500,   -0.4375,    0.3750,1478545179.871
    1.0625,   -0.0625,   -0.0625,1478545179.894
   -0.4375,    0.0625,    0.1250,1478545179.909
   -0.5000,   -0.1250,   -0.0625,1478545179.932
    0.1250,   -0.3125,   -0.0625,1478545179.950
    1.1250,   -0.3750,   -0.3125,1478545179.972
    2.1250,   -0.3750,   -0.4375,1478545179.992
    2.6250,   -0.5625,   -0.4375,1478545180.023
    3.5625,   -0.8125,   -0.6250,1478545180.029
    5.3125,   -1.0625,   -0.8125,1478545180.052
    5.8125,   -1.6875,   -1.1875,1478545180.069
    6.0000,   -1.7500,   -1.5000,1478545180.089
    6.3750,   -2.6875,   -1.7500,1478545180.112
    7.6250,   -2.5000,   -1.1250,1478545180.130
    7.3125,   -1.8125,   -0.2500,1478545180.149
    3.8750,   -0.4375,   -0.1875,1478545180.173
   -0.1250,   -0.1250,   -0.3750,1478545180.189
   -2.1875,   -0.1250,   -0.5000,1478545180.210
   -0.6250,    0.6875,   -0.3125,1478545180.248
    0.8750,    0.7500,    0.0625,1478545180.251
   -0.5625,    1.5625,   -1.5000,1478545180.270
   -1.3750,    0.1875,   -0.8750,1478545180.302
   -0.3125,    0.0000,   -0.1875,1478545180.309
    2.8125,   -0.5000,   -0.6250,1478545180.330
    3.6250,    0.0000,   -0.5625,1478545180.351
    1.0000,   -0.2500,   -0.3125,1478545180.369
   -1.1875,    0.0625,   -0.3750,1478545180.390
   -1.0625,    0.4375,    0.3125,1478545180.412
   -2.5000,    0.7500,    0.4375,1478545180.437
   -2.0000,    0.6875,    0.5000,1478545180.452
    0.1250,    1.4375,   -0.0625,1478545180.480
   -0.1875,    1.3125,    0.3125,1478545180.489
    0.9375,    1.1250,    0.3125,1478545180.510
    1.2500,    0.4375,    0.0625,1478545180.532
    2.0000,   -0.0625,    0.0000,1478545180.549
    2.6250,   -0.5625,   -0.1250,1478545180.572
    0.6250,   -1.0000,    0.0000,1478545180.592
    0.1875,   -0.0625,    0.1875,1478545180.609
   -1.4375,    0.6250,    0.3125,1478545180.632
   -0.6875,    1.2500,    0.0000,1478545180.651
   -2.5000,    1.2500,    0.1875,1478545180.669
    1.1250,   -0.1875,    1.0000,1478545180.692
    2.3125,   -0.3750,   -0.5625,1478545180.714
    4.3750,   -0.0625,    1.1875,1478545180.729
   -1.0625,    0.5000,    0.5625,1478545180.759
   -3.1875,    1.3750,    0.3125,1478545180.771
   -2.8750,    1.7500,    0.6875,1478545180.789
   -2.8750,    1.9375,    0.5000,1478545180.812
   -2.9375,    1.8750,    0.5625,1478545180.831
    3.0000,    0.7500,    0.0625,1478545180.850
    0.2500,    0.8750,    1.2500,1478545180.872
   -8.2500,   -0.1875,   -0.2500,1478545180.893
   -9.6875,   -0.5625,   -1.3750,1478545180.909
   -4.7500,    1.2500,    0.3750,1478545180.932
   -3.3750,    0.4375,    0.6875,1478545180.959
   -0.5625,   -0.5625,   -0.1875,1478545180.970
    0.1875,   -0.1875,   -0.6250,1478545180.992
    0.6875,    0.7500,   -0.1875,1478545181.012
   -6.0625,    1.2500,   -0.3750,1478545181.037
   -9.1875,    0.6875,   -1.7500,1478545181.052
  -10.9375,    1.5625,    0.0625,1478545181.079
   -8.3125,    0.8750,    0.7500,1478545181.089
   -9.4375,    0.1875,   -0.2500,1478545181.111
   -6.0000,   -0.5625,   -0.0625,1478545181.132
    2.8125,   -0.5000,    0.0000,1478545181.149
    3.7500,   -1.0625,   -0.1250,1478545181.172
    0.5000,   -1.1250,   -0.1250,1478545181.192
    0.0625,   -0.6875,    0.0625,1478545181.208
   -2.3750,   -0.4375,    0.1875,1478545181.238
   -3.3750,   -0.7500,    0.3750,1478545181.252
   -0.9375,   -0.8750,   -0.0625,1478545181.268
    1.3750,   -1.2500,   -0.0625,1478545181.291
    2.0000,   -1.1250,    0.0625,1478545181.313
    2.6875,    0.5000,    0.1875,1478545181.328
    0.0000,    0.5625,    0.3125,1478545181.358
   -1.9375,    0.0000,    0.0625,1478545181.372
   -0.0625,   -0.1875,    0.0000,1478545181.388
   -0.5000,   -0.5625,    0.1875,1478545181.411
   -0.5000,   -0.6875,    0.1250,1478545181.432
   -0.3125,   -0.6250,    0.3125,1478545181.449
    0.8750,   -0.6875,    0.5000,1478545181.471
    1.3750,   -0.5000,    0.2500,1478545181.501
    0.9375,   -0.7500,    0.0000,1478545181.515
    0.0625,   -0.7500,    0.3125,1478545181.532
    1.3125,   -0.3125,    0.3125,1478545181.562
   -0.2500,   -0.3750,    0.2500,1478545181.569
   -0.6875,    0.0000,    0.5625,1478545181.591
    0.0625,   -0.1250,    0.0625,1478545181.614
    0.3125,   -0.6250,    0.0625,1478545181.637
    2.0000,   -0.5625,    0.3750,1478545181.651
    2.3750,   -0.6250,    0.2500,1478545181.682
    1.5625,   -0.8125,   -0.1875,1478545181.695
    0.8750,   -0.8750,    0.0000,1478545181.711
    2.0000,   -0.8125,    0.0625,1478545181.734
    2.0000,   -0.8750,    0.0625,1478545181.748
    2.5625,   -0.8125,    0.0000,1478545181.771
    2.1250,   -0.7500,   -0.1250,1478545181.793
    0.9375,   -0.4375,    0.1875,1478545181.808
   -0.0625,   -0.1875,   -0.2500,1478545181.838
   -0.7500,   -0.2500,   -0.1250,1478545181.853
   -0.2500,   -0.2500,   -0.1250,1478545181.868
   -0.3125,   -0.2500,   -0.1250,1478545181.891
   -0.1875,   -0.3750,   -0.0625,1478545181.913
   -0.6250,   -0.3750,    0.0000,1478545181.928
   -0.1250,   -0.1875,   -0.1250,1478545181.966
    0.3125,   -0.1875,   -0.0625,1478545181.973
   -0.2500,   -0.2500,   -0.1875,1478545181.995
   -0.4375,   -0.3750,   -0.3750,1478545182.011
   -0.1875,   -0.1250,   -0.1250,1478545182.034
    0.4375,   -0.2500,   -0.1875,1478545182.055
    0.0625,    0.3125,   -0.2500,1478545182.071
   -1.4375,    0.3750,   -0.5000,1478545182.100
   -1.7500,    0.1875,   -0.3125,1478545182.116
   -1.0625,    0.1875,    0.1875,1478545182.131
   -1.6250,    0.1875,    0.1875,1478545182.154
   -1.8125,   -0.0625,   -0.0625,1478545182.174
   -0.3125,   -0.1875,   -0.3125,1478545182.193
    0.5000,   -0.1875,    0.0000,1478545182.213
   -0.5000,   -0.0625,   -0.3125,1478545182.236
   -1.7500,   -0.2500,   -0.5625,1478545182.251
   -1.1875,   -0.4375,   -0.5000,1478545182.274
    0.1875,   -0.1250,   -0.3125,1478545182.294
   -0.5625,   -0.0625,   -0.3750,1478545182.311
   -2.1875,   -0.4375,   -0.6250,1478545182.333
   -1.0000,   -0.4375,   -0.4375,1478545182.355
    0.1250,   -0.1875,   -0.3125,1478545182.372
   -1.6875,   -0.4375,   -0.5625,1478545182.393
   -2.7500,   -0.2500,   -0.6250,1478545182.423
   -2.1250,   -0.3750,   -0.6875,1478545182.431
   -1.3125,   -0.5000,   -0.6250,1478545182.467
   -1.3125,   -0.6875,   -0.8750,1478545182.477
    0.0000,   -0.6875,   -0.8125,1478545182.491
    3.3125,    0.3125,   -0.8750,1478545182.515
   -2.2500,    0.6250,    0.2500,1478545182.536
   -2.6875,    0.0625,    0.5625,1478545182.551
    0.3750,    0.0000,   -0.3125,1478545182.574
    2.6875,   -0.5625,   -2.1875,1478545182.596
    9.5000,   -0.9375,   -1.1250,1478545182.610
   14.8750,   -0.2500,   -0.5625,1478545182.634
   13.3750,    5.6250,   -0.6875,1478545182.657
  -19.5000,    3.6875,    3.1875,1478545182.677
  -15.9375,   -0.3125,   -1.7500,1478545182.695
   -3.6250,   -2.6250,   -0.1875,1478545182.716
    9.8125,   -2.2500,   -0.7500,1478545182.745
    9.7500,   -2.3750,   -1.0000,1478545182.754
    8.3750,   -2.0000,   -2.3750,1478545182.776
    2.5625,   -0.8750,   -2.5625,1478545182.792
    4.5000,    0.0000,   -2.5625,1478545182.813
    8.5000,    0.4375,   -2.9375,1478545182.836
    9.6250,    0.8750,   -4.8750,1478545182.850
    9.4375,   -0.1875,   -8.2500,1478545182.873
    6.4375,   -2.4375,  -10.8125,1478545182.896
    2.7500,   -2.5625,  -13.9375,1478545182.910
   -0.3750,    5.0625,  -16.3125,1478545182.934
  -12.8125,   12.7500,  -18.8750,1478545182.956
  -21.6250,   18.0000,  -21.9375,1478545182.978
   -5.9375,   22.1250,  -25.0625,1478545182.993
   21.8750,   27.6875,  -23.0000,1478545183.024
   20.1250,   32.5000,  -19.3750,1478545183.037
    4.3125,   33.8125,  -20.1250,1478545183.054
  -15.5625,   31.5625,  -20.1250,1478545183.079
  -25.6250,   30.0000,  -16.0000,1478545183.097
  -21.0000,   27.0000,   -5.4375,1478545183.129
   -5.3750,   21.5625,    8.1250,1478545183.136
  -25.7500,   17.1250,   17.2500,1478545183.157
  -24.0000,   14.1250,   12.4375,1478545183.181
  -23.8750,    8.1875,   14.1250,1478545183.196
  -40.6250,    6.9375,    3.9375,1478545183.225
  -67.4375,    3.4375,    2.9375,1478545183.233
  -85.6875,    5.0625,    2.8750,1478545183.256
  -97.2500,    5.3125,    8.4375,1478545183.277
 -100.6250,    4.0625,   13.4375,1478545183.293
 -103.3750,    9.3750,   12.8750,1478545183.316
  -90.2500,    9.5625,   12.0000,1478545183.337
  -74.9375,    4.0625,   12.4375,1478545183.353
  -80.3125,   -3.7500,   12.1875,1478545183.376
  -78.8750,   -8.0625,   14.5625,1478545183.398
  -65.5000,   -2.0625,   11.6250,1478545183.413
  -36.5000,    7.4375,    9.9375,1478545183.436
  -21.1875,    9.0625,    9.0000,1478545183.458
  -12.3750,    6.3750,    6.5625,1478545183.473
   -6.3750,    1.5625,    1.6250,1478545183.504
   -8.1875,   -4.1875,   -0.4375,1478545183.519
   -8.3750,   -6.8750,   -1.0000,1478545183.539
   -3.1875,   -7.6250,   -1.2500,1478545183.556
    1.1875,   -7.5625,   -2.4375,1478545183.579
    3.3125,   -6.3750,   -4.3125,1478545183.593
    1.6875,   -5.7500,   -4.1875,1478545183.617
   -3.3750,   -9.3125,   -2.0000,1478545183.639
   -6.8125,  -18.6250,    4.6875,1478545183.660
  -14.6875,  -26.5000,   12.3750,1478545183.705
  -19.8125,  -29.7500,   22.8125,1478545183.716
   -6.2500,  -33.1875,   28.2500,1478545183.737
   19.6875,  -33.7500,   28.3125,1478545183.742
   36.5000,  -36.1875,   29.3750,1478545183.765
   37.7500,  -33.1875,   31.1875,1478545183.781
   36.8125,  -30.0000,   36.5625,1478545183.796
   37.0000,  -30.1875,   44.1250,1478545183.819
   59.3125,  -33.5000,   48.6875,1478545183.840
   57.6250,  -22.0000,   48.6875,1478545183.856
   60.3750,  -11.8750,   41.3750,1478545183.878
   67.0000,   -6.6875,   33.1250,1478545183.909
   71.1875,   -6.8750,   30.6250,1478545183.916
   74.0625,   -9.3750,   36.5625,1478545183.938
   95.4375,  -12.5625,   46.3750,1478545183.959
  128.8125,  -19.6875,   48.9375,1478545183.976
  203.6875,  -24.3750,   51.8750,1478545183.998
  300.1250,  -21.3125,   61.9375,1478545184.020
  375.6875,  -22.8750,   75.0000,1478545184.036
  421.5625,  -14.0000,   72.8750,1478545184.058
  485.3750,   -2.8750,   52.6875,1478545184.080
  491.2500,    7.6250,   41.3125,1478545184.096
  339.6250,    1.9375,   34.0625,1478545184.119
  134.8750,  -11.1875,   -0.3750,1478545184.140
   -4.3125,  -17.0000,  -28.0000,1478545184.155
  -94.8125,  -17.0625,  -28.1250,1478545184.179
 -110.7500,  -11.0000,  -17.0625,1478545184.200
  -52.6875,   -1.3750,   -3.1875,1478545184.215
   21.7500,    7.2500,    6.0000,1478545184.239
   58.5000,   10.9375,    8.1250,1478545184.260
   41.6250,   11.1875,    3.6875,1478545184.290
   -1.4375,    9.0625,   -3.5625,1478545184.298
  -27.1875,    8.8125,   -5.1250,1478545184.321
  -13.7500,   11.8750,   -2.0625,1478545184.336
    8.6250,   12.9375,    2.1250,1478545184.358
   16.8750,   12.0625,    4.3750,1478545184.381
   14.0000,    9.4375,    5.0625,1478545184.395
    8.2500,    7.5000,    6.2500,1478545184.418
    5.3125,    6.0000,    6.0000,1478545184.441
    4.3125,    5.4375,    6.3125,1478545184.462
    8.4375,    4.3750,    6.3125,1478545184.478
    8.2500,    2.5000,    5.8125,1478545184.501
    4.8125,    1.3750,    4.8125,1478545184.515
    0.4375,    0.8750,    3.9375,1478545184.538
    0.8125,    0.1875,    1.1875,1478545184.568
    1.8125,    0.7500,   -0.6250,1478545184.575
    4.5000,    0.8750,   -1.2500,1478545184.599
    2.5625,   -0.4375,   -2.3125,1478545184.621
   -0.6875,   -2.4375,   -4.0625,1478545184.635
    1.3750,   -2.8750,   -3.3750,1478545184.659
    2.9375,   -2.8750,   -2.0625,1478545184.681
    2.0625,   -2.9375,   -1.5000,1478545184.695
    3.2500,   -2.2500,   -1.8750,1478545184.718
    4.6875,   -2.4375,   -1.2500,1478545184.741
   -0.1250,   -4.0625,   -0.6875,1478545184.747
   -2.6875,   -4.6250,   -1.2500,1478545184.763
   -2.1250,   -5.0625,   -1.5000,1478545184.785
   -1.6250,   -4.6875,   -1.2500,1478545184.807
   -3.5000,   -4.4375,   -1.1875,1478545184.829
   -1.5625,   -3.1250,   -0.5625,1478545184.847
    2.0000,   -1.2500,    0.6250,1478545184.869
    0.6250,   -1.0625,    0.8125,1478545184.891
   -2.3125,   -1.0000,   -0.1875,1478545184.904
   -1.8125,   -0.5000,   -0.7500,1478545184.926
   -2.9375,   -0.6875,   -0.6875,1478545184.943
   -2.9375,   -0.7500,   -0.0625,1478545184.964
   -0.6875,    0.1875,    1.5000,1478545184.986
    0.3750,    1.1250,    2.0000,1478545185.003
   -0.3125,    1.6875,    2.1250,1478545185.024
   -2.0000,    1.6875,    2.0000,1478545185.046
   -2.8750,    1.9375,    2.0000,1478545185.063
   -3.2500,    2.3750,    2.0000,1478545185.084
   -3.5625,    2.2500,    2.5000,1478545185.106
   -1.7500,    1.2500,    2.8125,1478545185.124
    1.0625,    1.2500,    2.3125,1478545185.147
    1.8750,    0.9375,    2.0000,1478545185.170
   -2.1250,   -1.1875,    1.8125,1478545185.183
   -3.1875,   -1.1250,    1.0625,1478545185.212
    1.2500,   -0.4375,    1.6250,1478545185.227
    2.9375,   -0.6250,    2.3750,1478545185.244
    0.8125,   -2.0625,    1.4375,1478545185.264
   -3.4375,   -4.0625,   -0.8125,1478545185.287
   -0.4375,   -3.7500,   -1.3750,1478545185.304
    6.3750,   -2.0000,    1.3125,1478545185.324
    0.8125,   -0.9375,    1.0625,1478545185.346
   -3.3750,    0.1250,    0.6875,1478545185.364
   -1.9375,    0.7500,    2.1250,1478545185.384
   -1.8125,    1.5625,    2.6875,1478545185.406
   -1.5625,    1.0625,    2.6250,1478545185.424
    0.3125,    1.3750,    3.6250,1478545185.447
   -2.3750,    1.2500,    3.2500,1478545185.466
   -6.3750,    1.1250,    2.6875,1478545185.484
   -7.9375,    2.0000,    3.0000,1478545185.504
  -14.6250,    3.1250,    1.8125,1478545185.526
  -22.1250,    3.0625,    0.1250,1478545185.544
  -27.3125,    7.0625,   -0.3125,1478545185.564
  -38.2500,   10.8750,   -1.1875,1478545185.586
  -74.8750,   15.8750,   -5.8750,1478545185.604
 -113.9375,   16.6875,  -11.8125,1478545185.624
 -144.1875,   14.1875,  -12.1250,1478545185.647
 -177.0000,   14.5625,  -13.1875,1478545185.664
 -209.6875,   14.1875,  -20.9375,1478545185.685
 -237.5625,   17.5625,  -31.8750,1478545185.709
 -256.0625,   18.7500,  -38.6875,1478545185.725
 -260.8750,   13.0625,  -50.1250,1478545185.744
 -252.1875,    2.0000,  -51.6250,1478545185.769
 -269.9375,   -3.2500,  -43.4375,1478545185.792
 -279.5000,   -9.1250,  -40.3750,1478545185.804
 -267.3125,   -6.6875,  -39.4375,1478545185.827
 -220.1250,   -5.9375,  -32.5625,1478545185.849
 -153.2500,    1.5000,  -19.0000,1478545185.866
  -94.7500,   10.1250,   -4.3125,1478545185.888
  -68.3750,   17.4375,    4.1250,1478545185.904
  -35.3750,   19.8125,    6.5000,1478545185.931
   -0.7500,   10.5000,    3.3125,1478545185.954
  -16.5000,    2.4375,   -7.6250,1478545185.964
  -31.2500,   -3.0625,   -7.5000,1478545185.985
  -27.6250,   -1.8750,   -5.8125,1478545186.006
    2.0000,    3.8125,   -6.3750,1478545186.024
   37.4375,    5.5625,   -5.1250,1478545186.045
   32.7500,    1.7500,  -10.3125,1478545186.066
    4.5000,   -3.2500,  -14.0000,1478545186.084
  -10.4375,   -3.0000,  -11.7500,1478545186.105
   -5.4375,   -0.1250,   -6.0625,1478545186.126
    7.3125,    2.1875,   -3.6875,1478545186.144
    9.6875,    2.5000,   -0.7500,1478545186.165
    3.3125,    1.6250,    0.2500,1478545186.187
    1.3125,    0.7500,    2.2500,1478545186.204
    2.8750,   -0.3125,    2.8750,1478545186.234
    4.6250,   -1.3750,    3.0000,1478545186.246
    5.1875,   -2.3750,    2.5000,1478545186.264
    2.3750,   -2.6875,    2.0625,1478545186.287
    3.0625,   -3.1250,    1.6250,1478545186.307
    3.1875,   -2.6875,    1.3125,1478545186.324
    4.1875,   -1.1250,    1.5625,1478545186.347
    3.0000,   -0.5000,    1.8750,1478545186.366
    3.8750,    0.3125,    2.0000,1478545186.392
    4.5625,    1.1875,    2.2500,1478545186.407
    3.0625,    1.3750,    2.4375,1478545186.426
    4.6250,    1.1875,    2.8750,1478545186.444
    5.6875,    0.9375,    2.6875,1478545186.467
    5.3750,    0.5000,    1.5000,1478545186.487
    6.3125,    0.3750,    2.1875,1478545186.511
    8.5000,   -0.1250,    3.6250,1478545186.526
   13.2500,   -0.3125,    6.7500,1478545186.554
   22.7500,   -1.1250,    5.8125,1478545186.564
   25.8750,   -2.8125,    6.8125,1478545186.592
   16.3750,   -3.5625,    7.5000,1478545186.607
   11.5625,   -6.8125,    8.0625,1478545186.623
   12.6250,   -7.1250,    7.0625,1478545186.646
   13.0625,   -9.5000,    8.8750,1478545186.667
   16.8125,  -10.8125,    9.6875,1478545186.684
   21.0625,  -11.8750,   11.2500,1478545186.706
   19.1875,  -14.0000,   11.1250,1478545186.727
   21.6875,  -11.7500,    9.8750,1478545186.744
   15.5625,   -9.1250,   12.5625,1478545186.766
   10.3750,   -6.2500,   15.3750,1478545186.789
   19.8125,   -7.4375,   14.9375,1478545186.804
   45.1250,   -1.1875,   14.3125,1478545186.834
   86.8750,    8.3750,   30.4375,1478545186.850
  169.6875,   22.6250,   64.3125,1478545186.864
  315.8125,    5.4375,  116.7500,1478545186.886
  409.8125,  -42.1250,  164.7500,1478545186.915
  527.7500, -106.3125,  141.1875,1478545186.924
  616.0625, -135.2500,   40.2500,1478545186.946
  469.1875,  -36.3750,  -47.5000,1478545186.968
  775.6250,  147.1250, -117.0000,1478545186.983
  -84.4375,  115.1250,  239.1875,1478545187.006
 -329.2500,   21.3125,  -97.3125,1478545187.027
 -413.8750,  -14.8125,  -94.3125,1478545187.043
 -150.3750,  -11.1250,   59.7500,1478545187.067
  182.4375,   35.8750,  -37.5000,1478545187.096
  229.5000,   40.1250,   30.0000,1478545187.112
  115.3750,   15.2500,   19.8750,1478545187.127
    3.9375,    1.9375,   -8.4375,1478545187.155
  -60.1250,   -5.9375,    2.2500,1478545187.165
  -64.9375,   -8.4375,    3.8125,1478545187.192
  -26.6250,   -8.1250,    3.0625,1478545187.209
   23.5000,   -6.2500,    2.6250,1478545187.223
   40.3125,   -3.1875,    1.9375,1478545187.248
   23.3750,   -3.3125,   -3.3750,1478545187.276
    0.1875,   -2.8750,   -6.2500,1478545187.289
  -11.6875,   -1.3750,   -7.4375,1478545187.306
   -5.8125,    0.5000,   -6.6875,1478545187.329
    5.2500,    1.8750,   -3.9375,1478545187.350
    6.0625,    1.2500,   -3.1875,1478545187.366
   -1.6875,   -0.5000,   -2.0000,1478545187.388
   -9.5625,   -3.1875,   -2.3750,1478545187.403
   -8.6250,   -4.3750,   -2.1250,1478545187.433
   -0.9375,   -3.5625,   -0.6250,1478545187.455
    2.0000,   -2.4375,    0.6250,1478545187.463
    0.1250,   -1.8750,    0.6875,1478545187.487
   -5.6875,   -1.5000,    0.8750,1478545187.516
   -8.4375,   -1.3125,    0.6875,1478545187.523
   -7.3125,   -0.4375,    1.4375,1478545187.553
   -5.8750,   -0.1250,    0.7500,1478545187.574
   -6.4375,   -0.8125,    1.2500,1478545187.583
  -12.6875,   -1.8750,    2.0625,1478545187.606
  -16.9375,   -1.8750,    0.5000,1478545187.628
  -13.0625,   -0.6250,   -1.1875,1478545187.643
   -6.0000,    0.4375,   -0.0625,1478545187.672
    5.3125,    1.0000,   -0.5625,1478545187.696
    7.1875,    1.3750,    1.7500,1478545187.711
   -3.3125,    1.1250,    1.6875,1478545187.727
   -9.5625,    1.3750,    0.7500,1478545187.749
   -5.4375,    3.1875,    1.5625,1478545187.769
    3.0000,    4.0625,    2.2500,1478545187.794
    2.8125,    3.7500,    1.6875,1478545187.809
   -1.7500,    4.6250,    0.1875,1478545187.831
   -2.5625,    6.5000,   -0.0625,1478545187.847
    4.1875,    9.3750,   -0.3750,1478545187.876
    9.5000,   10.5625,    0.3125,1478545187.897
   12.5625,   10.0000,    0.5625,1478545187.906
    8.3750,    6.9375,   -0.8750,1478545187.929
    0.3125,    3.7500,   -1.0000,1478545187.949
   -4.7500,    2.1875,   -3.4375,1478545187.967
   -1.0625,    3.5625,   -2.0000,1478545187.988
    7.8750,    4.1250,   -1.0000,1478545188.010
   16.3125,    4.5000,    0.8125,1478545188.026
   13.3750,    4.4375,    1.6250,1478545188.056
    3.5625,    3.5000,    0.4375,1478545188.069
   -3.0625,    3.1250,    1.2500,1478545188.087
   -6.6250,    2.5000,   -0.1875,1478545188.108
   -3.9375,    2.2500,   -1.1250,1478545188.152
   -3.8125,    3.0625,   -0.6250,1478545188.163
  -10.8125,    4.1875,   -1.5000,1478545188.199
  -16.3750,    5.0625,   -2.6875,1478545188.206
  -22.5625,    5.5000,   -3.4375,1478545188.208
  -22.1250,    5.9375,   -4.1250,1478545188.245
  -12.3125,    6.1875,   -4.2500,1478545188.251
   -0.8750,    5.5625,   -3.3750,1478545188.290
    8.5625,    2.9375,   -2.5625,1478545188.295
   10.6250,   -0.1250,   -2.2500,1478545188.311
    7.8125,   -0.8125,   -0.4375,1478545188.335
    2.1250,   -1.9375,   -0.6250,1478545188.348
   -3.7500,   -1.9375,    0.1250,1478545188.387
   -4.9375,   -1.8750,    0.1250,1478545188.392
   -1.1250,   -1.1250,    0.1250,1478545188.432
   -0.0625,   -1.7500,   -0.3750,1478545188.437
    0.0625,   -1.0625,   -1.2500,1478545188.477
   -0.8750,   -0.9375,   -1.3125,1478545188.479
   -2.4375,   -0.6250,   -1.7500,1478545188.529
   -9.0625,   -4.3125,   -2.5625,1478545188.531
   -5.3750,    0.8125,   -3.3750,1478545188.569
   -4.5000,    0.1250,   -0.8125,1478545188.575
   -6.5625,   -0.3125,    0.5625,1478545188.590
   -5.2500,   -0.8125,    0.8125,1478545188.613
   -1.5000,   -1.0000,    0.5000,1478545188.632
    0.6250,    0.0000,    0.8125,1478545188.664
   -0.8125,    0.4375,   -0.2500,1478545188.672
   -3.1875,    0.9375,   -0.4375,1478545188.710
   -3.5000,    0.7500,   -0.7500,1478545188.714
    0.6875,    0.5000,   -0.8125,1478545188.737
    5.0000,    0.0625,   -0.4375,1478545188.755
    5.3750,    0.0625,   -0.2500,1478545188.777
    3.7500,   -0.9375,   -0.1875,1478545188.799
    3.4375,   -3.2500,   -0.4375,1478545188.820
    6.8750,   -2.8125,   -0.6875,1478545188.845
   10.0625,   -1.6875,    0.0625,1478545188.851
    5.4375,   -2.1875,    0.3750,1478545188.872
   -2.2500,   -1.9375,   -0.8125,1478545188.888
   -7.6250,   -2.0000,   -1.0000,1478545188.911
   -5.3750,   -1.9375,   -1.0625,1478545188.940
   -0.5000,   -1.3750,   -0.1875,1478545188.948
    2.4375,   -0.7500,    0.6250,1478545188.987
    3.0625,    0.0625,    0.6875,1478545188.992
    1.3125,    0.5000,    1.0625,1478545189.009
   -1.8125,   -0.1250,    0.6250,1478545189.031
   -2.8125,   -1.2500,   -0.2500,1478545189.053
    1.0000,   -1.0000,   -0.5000,1478545189.076
    3.4375,   -1.0625,    0.2500,1478545189.099
    3.0000,   -0.5625,    0.2500,1478545189.121
    1.0000,   -0.6875,    0.1875,1478545189.130
   -0.8125,   -0.9375,    0.0625,1478545189.151
    0.1250,   -0.8750,    0.4375,1478545189.173
    1.3750,   -0.5625,    0.3750,1478545189.188
    0.5625,   -1.1875,    0.6250,1478545189.218
    0.0625,   -0.4375,    0.3125,1478545189.233
   -0.0625,   -0.6875,    0.1875,1478545189.248
   -0.3125,   -0.5625,   -0.0625,1478545189.271
    0.6250,   -0.5000,   -0.5000,1478545189.294
    0.7500,   -0.1250,   -0.3750,1478545189.309
    0.4375,   -0.0625,   -0.5625,1478545189.333
   -0.2500,   -0.4375,   -0.3750,1478545189.362
    0.5625,   -1.2500,   -0.3750,1478545189.375
    0.7500,   -1.0625,    0.5625,1478545189.399
    1.1875,   -1.0625,    0.3750,1478545189.413
    1.1875,   -1.0000,    1.3125,1478545189.428
    0.0000,   -0.9375,    0.9375,1478545189.451
   -0.6875,   -1.1875,    0.1875,1478545189.473
   -2.6875,   -1.4375,    0.0625,1478545189.503
   -1.6875,   -2.3750,   -0.3125,1478545189.518
   -0.6875,   -3.3125,    0.8750,1478545189.541
    0.0625,   -4.0625,    0.8125,1478545189.548
    0.2500,   -4.3125,    1.5000,1478545189.571
   -0.2500,   -4.0000,    2.1250,1478545189.593
   -0.8750,   -4.0000,    2.0000,1478545189.614
   -2.0000,   -4.1875,    1.5000,1478545189.631
   -2.7500,   -4.2500,    1.1875,1478545189.653
   -4.5000,   -4.8125,    0.5000,1478545189.676
   -5.4375,   -5.2500,   -0.3750,1478545189.691
   -2.8750,   -4.7500,   -0.1250,1478545189.713
   -0.6250,   -3.6875,    0.1875,1478545189.734
   -0.4375,   -2.6250,    0.0625,1478545189.751
   -1.5000,   -2.0000,    0.1250,1478545189.773
   -1.6875,   -1.2500,    0.0625,1478545189.795
   -1.5625,   -0.6875,    0.4375,1478545189.811
    0.0000,   -0.3750,    0.0000,1478545189.841
    1.6875,    0.2500,   -0.6250,1478545189.855
    1.3125,    0.8125,   -0.9375,1478545189.871
    0.6875,    1.2500,   -1.6250,1478545189.894
    0.3750,    1.2500,   -1.8125,1478545189.915
    1.2500,    0.7500,   -2.4375,1478545189.931
    2.6875,    0.8750,   -2.0625,1478545189.954
    2.8125,    1.2500,   -1.4375,1478545189.975
    2.0000,    1.1250,   -1.0000,1478545189.998
    1.8125,    0.6250,   -0.8750,1478545190.013
    1.1250,    0.5000,    0.0000,1478545190.036
    0.1875,    0.4375,   -0.0625,1478545190.051
    1.1875,    0.4375,    0.3125,1478545190.074
    1.6875,    0.2500,    0.5000,1478545190.102
    0.8750,    0.5625,    0.8125,1478545190.118
    0.5000,    0.2500,    0.8750,1478545190.141
    0.9375,    0.0000,    0.6250,1478545190.143
    1.0625,    0.3125,    0.8125,1478545190.164
    0.5625,    0.3125,    0.2500,1478545190.178
    0.0000,   -0.1250,    0.0000,1478545190.208
   -1.1250,   -0.2500,   -0.6250,1478545190.222
   -0.6250,   -0.1250,   -0.6250,1478545190.236
    0.0000,    0.0000,   -0.3750,1478545190.259
    1.1875,    0.1875,   -0.2500,1478545190.281
    0.4375,    0.0625,    0.0000,1478545190.296
   -1.9375,   -0.1250,   -0.0625,1478545190.326
   -2.4375,   -0.6875,   -0.1875,1478545190.342
    0.3125,   -0.6250,   -0.3750,1478545190.356
    1.0625,   -0.2500,    0.0000,1478545190.379
    0.3750,   -0.1250,   -0.6875,1478545190.401
    0.8750,    0.0000,   -0.8125,1478545190.416
   -0.3750,    0.5000,   -0.6250,1478545190.442
   -1.5000,    0.3750,   -0.8750,1478545190.461
   -0.1875,    0.1250,   -0.7500,1478545190.484
    1.0000,   -0.1875,   -0.4375,1478545190.507
   -0.1875,   -1.0000,   -0.2500,1478545190.521
   -2.1875,   -2.1250,   -0.3125,1478545190.536
   -1.3125,   -2.2500,   -0.3125,1478545190.559
   -0.6875,   -2.1875,    0.3125,1478545190.581
   -0.3750,   -1.5625,   -0.2500,1478545190.605
   -0.7500,   -1.3750,   -0.1250,1478545190.619
   -2.7500,   -1.1875,   -0.3125,1478545190.641
   -7.5000,    0.1875,   -1.3750,1478545190.658
   -4.5000,    2.5625,   -3.3750,1478545190.679
   -5.2500,    1.7500,   -2.0625,1478545190.701
   -9.7500,    2.6875,    0.1875,1478545190.719
   -9.6250,   19.5000,   -1.3125,1478545190.739
  -17.9375,   -1.0000,   -1.1250,1478545190.764
   -9.0625,    1.5625,    9.5625,1478545190.784
   -9.5625,   13.1250,    9.3125,1478545190.799
  -14.0000,   14.8750,    7.5000,1478545190.831
  -50.0625,    4.5000,    6.8750,1478545190.838
  -42.0000,   -1.3750,    0.3125,1478545190.868
   -4.6250,    1.0625,    5.4375,1478545190.882
   25.3125,    3.1875,    6.5625,1478545190.916
   25.9375,    0.5000,    1.1250,1478545190.923
   -6.5000,   -4.7500,    0.0000,1478545190.958
  -23.3750,   -7.6250,   -5.7500,1478545190.967
  -11.4375,   -3.8125,   -3.8125,1478545191.012
   14.3750,    1.6250,   -2.5000,1478545191.018
   17.6250,    1.9375,    1.2500,1478545191.021
    6.8125,   -0.6875,   -1.8125,1478545191.065
   -8.1250,   -1.5000,   -1.1250,1478545191.069
  -17.6250,   -0.8125,   -2.8125,1478545191.103
   -9.8125,   -0.7500,   -2.8750,1478545191.108
    3.4375,   -4.6250,   -2.0000,1478545191.138
   24.1250,   -5.9375,   -0.3750,1478545191.155
   26.7500,   -6.8125,    4.8750,1478545191.159
   12.4375,   -2.0625,   -1.9375,1478545191.199
   -9.1250,    1.0000,   -4.7500,1478545191.201
  -10.7500,    2.5000,   -2.7500,1478545191.236
    2.0000,    3.8750,   -1.3125,1478545191.249
    6.6875,    4.0625,    0.8750,1478545191.259
    4.5000,    1.0625,    0.1250,1478545191.279
    1.6250,    0.4375,    1.0000,1478545191.301
    2.8125,    1.5625,    1.0625,1478545191.324
    7.1875,    2.3125,    1.4375,1478545191.365
    7.6875,    1.3750,    1.4375,1478545191.366
    2.3750,   -0.0625,    1.1875,1478545191.387
   -3.2500,   -1.5000,   -0.8750,1478545191.400
   -5.3125,   -2.1875,   -1.0625,1478545191.440
   -3.0625,   -1.7500,   -1.0625,1478545191.444
   -0.2500,   -0.9375,   -0.3125,1478545191.484
    0.7500,   -1.0000,   -0.9375,1478545191.486
    0.8750,   -1.3125,   -1.0625,1478545191.514
    1.0625,   -1.4375,   -0.8125,1478545191.528
    0.0625,   -1.3750,   -0.7500,1478545191.537
   -2.1875,   -1.5625,   -1.0000,1478545191.561
   -2.3125,   -1.3125,   -1.0625,1478545191.580
   -1.8750,   -1.2500,   -1.1250,1478545191.601
    0.1875,   -0.5625,   -0.6250,1478545191.620
    0.8125,   -1.3125,   -0.6250,1478545191.665
    0.4375,   -1.0000,   -0.8125,1478545191.669
   -0.6250,   -0.8750,   -0.5000,1478545191.694
   -0.7500,   -0.8125,   -0.6250,1478545191.716
    0.8750,   -0.4375,   -0.4375,1478545191.718
    1.8750,   -0.5000,   -0.1250,1478545191.764
    1.5625,   -0.0625,    0.5625,1478545191.768
   -0.3750,    0.2500,    0.6250,1478545191.806
   -0.5625,    0.5625,    1.0625,1478545191.808
    1.9375,    1.0000,    1.2500,1478545191.851
    2.0625,    1.2500,    1.4375,1478545191.853
    0.6250,    0.9375,    0.8750,1478545191.859
   -0.8750,    0.1250,    0.5000,1478545191.887
   -1.6875,   -0.2500,   -0.1250,1478545191.898
   -1.1250,    0.0000,    0.4375,1478545191.920
   -0.3750,   -0.0625,    0.2500,1478545191.941
    0.5000,   -0.4375,    0.0625,1478545191.955
    0.6250,   -0.7500,   -0.5625,1478545191.994
   -0.4375,   -1.4375,   -1.3125,1478545192.001
   -1.7500,   -1.6250,   -1.8125,1478545192.040
   -1.1250,   -1.1875,   -2.0000,1478545192.045
   -0.5625,   -0.7500,   -1.9375,1478545192.068
   -1.1875,   -1.0000,   -2.5000,1478545192.083
   -0.6250,   -1.1875,   -1.8125,1478545192.115
   -0.9375,   -1.3750,   -1.1250,1478545192.130
   -1.1875,   -1.2500,   -0.8750,1478545192.135
   -0.5625,   -1.0000,   -0.2500,1478545192.160
   -0.1875,   -1.1875,    0.1250,1478545192.181
   -0.3750,   -1.0000,   -0.6250,1478545192.195
    0.5000,   -0.8750,    0.0625,1478545192.218
    0.3125,   -0.1875,   -0.1250,1478545192.257
   -0.9375,   -0.4375,   -0.9375,1478545192.271
   -1.1250,   -0.1875,   -0.5000,1478545192.278
    0.1250,   -0.3750,   -0.6250,1478545192.301
   -0.3125,   -2.3125,   -1.5000,1478545192.315
    0.8125,   -3.4375,   -1.5000,1478545192.346
    3.6250,   -4.6875,   -0.8750,1478545192.362
   -4.8125,   -6.9375,   -0.8750,1478545192.408
  -16.1250,   -6.3125,   -3.8750,1478545192.412
  -21.8125,   -3.7500,   -3.8125,1478545192.452
  -29.4375,    0.1875,   -1.3750,1478545192.459
  -38.8750,    6.5000,    0.6875,1478545192.497
  -49.6250,   11.5625,   -0.6250,1478545192.499
  -60.6875,   13.5000,   -0.6875,1478545192.505
  -53.5000,    9.0625,    0.0000,1478545192.543
  -16.8125,    0.1250,    1.5000,1478545192.548
   26.8125,   -4.0625,    0.6250,1478545192.595
   43.4375,   -4.2500,    3.1875,1478545192.639
   23.2500,   -4.5000,    0.3750,1478545192.641
   -0.9375,   -3.6250,   -2.1875,1478545192.685
  -21.3125,   -1.3125,   -3.5000,1478545192.729
    8.9375,    2.8125,   -0.7500,1478545192.773
   11.0000,    3.6875,    0.7500,1478545192.781
  -10.0000,   -0.8750,    0.4375,1478545192.829
  -10.3125,   -1.8125,    0.5625,1478545192.873
    2.8750,   -1.1250,    0.5000,1478545192.917
   10.1875,    0.5625,    1.0625,1478545192.962
    1.3125,    0.5625,   -0.1250,1478545193.007
    3.1250,    1.7500,   -1.2500,1478545193.052
    6.1250,    3.2500,    0.3750,1478545193.059
    4.8125,    1.6875,    0.3125,1478545193.096
    5.2500,   -0.3125,    0.5625,1478545193.105
    4.6250,   -1.5000,    0.8125,1478545193.150
    4.8125,   -1.4375,    0.8125,1478545193.194
   -1.7500,    0.3750,    0.5000,1478545193.239
   -4.0000,    0.8125,   -0.1875,1478545193.284
    2.6875,    0.5000,    0.1875,1478545193.329
    2.5000,    0.1250,    0.6250,1478545193.331
    0.5625,   -0.3125,    0.1875,1478545193.337
   -0.7500,   -0.5000,    0.1250,1478545193.382
   -1.7500,   -0.6250,    0.0000,1478545193.417
    0.0000,   -0.5000,   -0.5000,1478545193.474
    1.1875,   -0.5000,   -0.6250,1478545193.518
   -0.5625,   -0.1250,   -1.0000,1478545193.561
   -0.2500,    0.6250,    0.1875,1478545193.568
    1.5000,    0.7500,    0.3750,1478545193.608
    1.2500,    0.6875,    0.3125,1478545193.612
    0.2500,    0.3750,    0.0625,1478545193.652
   -0.6250,    0.4375,    0.0625,1478545193.659
   -0.5625,    0.5000,    0.0625,1478545193.704
   -0.4375,    0.7500,    0.1250,1478545193.706
   -0.3750,    0.5625,   -0.1250,1478545193.750
    0.1875,    0.6250,   -0.1875,1478545193.794
   -0.6250,    0.4375,   -0.2500,1478545193.800
   -1.1875,   -0.5625,   -0.3125,1478545193.886
   -0.8125,   -1.0000,   -0.4375,1478545193.891
    0.7500,    0.3125,   -0.6875,1478545193.929
    0.0625,   -0.1250,   -1.1875,1478545193.982
    0.1250,    0.2500,   -1.2500,1478545193.987
   -1.1250,   -0.8750,   -1.0000,1478545194.070
   -0.9375,   -2.0000,   -0.7500,1478545194.117
   -2.0625,   -1.6250,   -0.9375,1478545194.162
    0.1250,   -0.4375,   -0.9375,1478545194.169
   -0.6250,    1.6875,   -0.5625,1478545194.214
   -2.5625,    2.0000,   -0.5625,1478545194.216
   -4.0000,    1.2500,    0.5000,1478545194.253
   -1.9375,    0.9375,    0.3750,1478545194.260
    1.1250,    0.4375,    1.1250,1478545194.305
    0.1875,    0.3750,    1.8125,1478545194.349
   -0.4375,    0.6250,    1.1250,1478545194.394
    1.8750,    2.4375,   -0.5000,1478545194.469
  -18.3750,    7.8750,   -4.4375,1478545194.486
  -85.0000,   19.3750,    7.9375,1478545194.487
 -111.3750,   22.1250,    5.5000,1478545194.512
 -164.0000,   18.9375,   18.4375,1478545194.527
 -200.7500,    0.5000,    9.1875,1478545194.543
 -125.5000,   -7.0000,   -1.1250,1478545194.567
  -19.1250,   -2.8750,    1.5625,1478545194.587
   52.2500,    4.0000,    5.6250,1478545194.603
   72.1875,    9.2500,    0.8125,1478545194.633
   49.6875,   10.6250,   -4.1250,1478545194.647
   13.8750,    6.1875,   -4.5625,1478545194.678
  -20.1875,    0.0000,   -5.1875,1478545194.686
  -30.3750,   -2.3750,   -5.5625,1478545194.707
  -10.4375,   -0.1250,   -5.1875,1478545194.723
   18.0625,    2.8125,   -1.7500,1478545194.746
   33.9375,    4.3125,   -0.5625,1478545194.768
   33.5000,    5.5000,    0.1875,1478545194.783
   24.7500,    2.2500,    0.2500,1478545194.807
   19.3750,   -0.6875,   -2.4375,1478545194.845
   15.5625,    0.3125,   -2.3125,1478545194.849
   10.2500,    0.8125,   -1.2500,1478545194.866
    3.5000,    1.0625,   -0.6250,1478545194.888
   -0.6875,    0.3125,    0.5000,1478545194.911
   -1.1250,    0.2500,    0.5000,1478545194.926
   -6.3750,   -0.1875,    0.4375,1478545194.956
  -10.6250,   -0.7500,   -2.2500,1478545194.963
  -10.8125,    2.8125,   -4.9375,1478545194.986
  -11.5625,    4.3750,   -6.1250,1478545195.009
  -13.8125,    3.6875,   -4.8750,1478545195.023
  -14.7500,    3.5000,   -3.1250,1478545195.053
  -12.2500,    2.4375,    0.0625,1478545195.068
   -3.0000,    0.2500,    1.6250,1478545195.083
    7.9375,   -1.0625,    2.6250,1478545195.113
   12.8750,   -1.1250,    2.8125,1478545195.128
    9.4375,   -0.8125,    3.1875,1478545195.144
    1.3125,   -0.8750,    2.6250,1478545195.166
   -6.1250,   -1.3125,    2.1875,1478545195.189
   -9.8125,   -1.1250,    1.3750,1478545195.203
   -8.0000,   -1.0000,    0.6875,1478545195.234
   -3.6250,   -0.3125,    0.3125,1478545195.248
    2.1250,    0.5000,   -0.2500,1478545195.278
    1.6875,   -0.3750,   -0.1875,1478545195.286
   -1.0000,   -1.2500,   -0.5625,1478545195.308
   -1.1250,   -2.0000,   -0.6250,1478545195.329
    0.1250,   -1.9375,   -0.7500,1478545195.346
    1.4375,   -1.3125,   -0.6250,1478545195.376
    2.0625,   -0.8750,   -0.6250,1478545195.391
    2.6250,   -0.6250,   -1.0625,1478545195.406
    2.3750,   -0.1875,   -1.1250,1478545195.436
    3.1250,    0.7500,   -1.1250,1478545195.449
    2.3750,    1.1250,   -0.9375,1478545195.466
    0.1875,    1.1250,   -0.9375,1478545195.488
   -0.6250,    0.9375,   -1.2500,1478545195.511
   -0.8750,    0.3750,   -1.0000,1478545195.525
   -0.7500,   -0.5625,   -0.6250,1478545195.531
   -0.0625,   -1.2500,   -0.3125,1478545195.562
    0.3750,   -1.3125,    0.1250,1478545195.576
    0.6875,   -1.1875,    0.7500,1478545195.593
   -0.5625,   -1.3125,    1.0625,1478545195.615
   -1.3750,   -1.1875,    1.0000,1478545195.636
   -0.6875,   -1.1250,    0.8125,1478545195.654
   -0.5625,   -0.8125,    0.1250,1478545195.674
    0.0625,   -0.3750,   -0.3750,1478545195.715
   -0.0625,   -0.0625,   -0.5625,1478545195.719
    0.3125,    0.5000,   -0.7500,1478545195.741
   -0.1875,    0.8125,   -0.8125,1478545195.759
   -0.1250,    0.5625,   -0.7500,1478545195.788
    0.1875,    0.0625,   -0.6875,1478545195.801
   -0.0625,   -0.4375,   -0.3125,1478545195.816
    0.6250,   -0.5625,   -0.0625,1478545195.842
    1.8750,   -0.6250,   -0.0625,1478545195.854
    1.6875,   -0.7500,   -0.0625,1478545195.901
    1.0000,   -0.6875,   -0.3750,1478545195.903
    2.1875,   -0.5625,   -0.3750,1478545195.914
    2.8750,   -0.5000,   -0.1250,1478545195.945
    3.1250,   -0.1875,   -0.0625,1478545195.951
    2.1875,    0.0625,    0.0000,1478545195.990
    0.8125,    0.3125,   -0.1250,1478545195.996
   -0.7500,    0.0000,    0.0625,1478545196.019
   -1.8750,   -0.5000,    0.0625,1478545196.036
   -0.0625,   -0.5000,   -0.1875,1478545196.068
    0.9375,   -0.5625,   -0.0625,1478545196.090
    1.5000,   -0.8125,   -0.5625,1478545196.094
    1.8125,   -0.8750,   -0.6250,1478545196.120
    1.1250,   -0.6250,   -0.8750,1478545196.131
    1.2500,    0.1875,   -0.8750,1478545196.161
   -1.0000,    0.3750,   -1.0000,1478545196.179
    0.1875,    0.9375,   -1.1250,1478545196.191
   -0.0625,    0.5000,   -0.7500,1478545196.223
    0.4375,    0.0625,   -0.5625,1478545196.236
    0.5000,   -0.3125,   -0.2500,1478545196.254
    0.3750,   -0.0625,   -0.3125,1478545196.274
    0.3125,   -0.1875,   -0.4375,1478545196.299
   -0.5625,   -0.5000,   -0.2500,1478545196.315
   -0.5000,   -0.3750,   -0.3125,1478545196.341
    0.7500,   -0.1250,   -0.1875,1478545196.357
    0.6250,    0.1250,   -0.2500,1478545196.396
    0.1250,   -0.3125,   -0.2500,1478545196.405
   -1.1250,   -0.2500,    0.0625,1478545196.411
   -1.3125,   -0.5000,    0.3750,1478545196.441
   -1.7500,   -0.1250,    0.4375,1478545196.463
   -1.5625,   -0.6875,    0.4375,1478545196.471
   -1.4375,   -0.5000,    0.2500,1478545196.500
   -0.7500,   -0.3125,    0.5000,1478545196.514
   -2.3750,   -0.1875,    0.1250,1478545196.544
   -3.3125,   -0.0625,   -0.4375,1478545196.552
   -4.9375,   -0.2500,   -0.6250,1478545196.577
   -6.8125,    0.0625,   -0.8750,1478545196.592
   -8.4375,    1.0625,   -1.3125,1478545196.637
  -11.1875,    1.0625,   -1.6875,1478545196.639
  -13.2500,    1.7500,   -1.6875,1478545196.673
  -17.3750,    3.0000,   -1.3750,1478545196.682
  -26.3125,    5.6875,   -2.2500,1478545196.695
  -36.0000,   10.0000,   -4.5625,1478545196.719
  -48.6250,   14.6250,   -6.6250,1478545196.734
  -65.0625,   19.1250,   -6.2500,1478545196.761
  -74.8125,   24.4375,   -4.8750,1478545196.784
  -75.4375,   29.0000,   -3.8750,1478545196.794
  -73.7500,   35.6250,   -5.8125,1478545196.821
  -82.7500,   41.9375,   -6.3750,1478545196.836
  -93.0000,   48.8125,   -7.8125,1478545196.854
 -105.3125,   53.6250,   -5.3750,1478545196.874
 -107.0625,   58.6250,   -4.6250,1478545196.892
 -105.9375,   60.5000,   -7.0000,1478545196.914
 -108.5625,   64.0625,  -10.8125,1478545196.934
 -116.0625,   71.5000,  -11.3750,1478545196.951
 -122.6875,   76.3125,  -15.4375,1478545196.990
 -122.5625,   82.8125,  -23.1875,1478545196.995
 -133.6875,   87.7500,  -27.5625,1478545197.011
 -149.0625,  102.9375,  -31.7500,1478545197.034
 -158.2500,  116.8125,  -38.4375,1478545197.056
 -162.9375,  131.1875,  -43.2500,1478545197.071
 -171.8750,  138.4375,  -47.3125,1478545197.102
 -214.0000,  149.5625,  -54.1875,1478545197.115
 -263.8750,  160.4375,  -52.8125,1478545197.132
 -246.6250,  156.4375,  -46.0625,1478545197.154
 -203.6875,  134.8750,  -28.0000,1478545197.174
 -173.6250,  115.0000,  -13.0625,1478545197.197
 -131.5000,   93.8125,  -13.0000,1478545197.214
  -62.5625,   77.8750,    0.6250,1478545197.234
  -27.3125,   58.1250,    2.2500,1478545197.252
  -22.8750,   35.1250,    4.0625,1478545197.274
   -2.0625,   17.0625,    1.2500,1478545197.295
   19.6250,    3.5000,   -2.1875,1478545197.317
   25.3750,   -7.6250,   -3.5625,1478545197.333
   25.5000,  -16.0000,   -8.4375,1478545197.354
   24.9375,  -21.2500,   -7.6875,1478545197.378
   31.8125,  -22.3125,   -6.1250,1478545197.393
   44.1250,  -22.0625,   -4.3125,1478545197.414
   53.7500,  -23.0625,   -3.5625,1478545197.430
   58.1250,  -27.2500,   -1.5625,1478545197.453
   56.3750,  -30.7500,    1.5000,1478545197.474
   57.8125,  -33.2500,    0.9375,1478545197.490
   60.3750,  -31.8125,    6.0000,1478545197.513
   61.8125,  -32.0625,   11.8750,1478545197.534
   55.5625,  -33.6875,   16.2500,1478545197.550
   42.2500,  -34.0000,   16.9375,1478545197.573
   35.8125,  -33.8750,   16.6875,1478545197.596
   37.1875,  -34.9375,    9.0625,1478545197.610
   36.7500,  -35.5000,    1.3750,1478545197.633
   37.4375,  -32.3125,    2.0000,1478545197.656
   33.8125,  -27.6875,    9.5000,1478545197.671
   39.3125,  -26.0625,   12.9375,1478545197.702
   43.0625,  -27.2500,   10.7500,1478545197.716
   48.5000,  -31.8125,    6.8750,1478545197.737
   49.8125,  -36.4375,    2.4375,1478545197.753
   29.6250,  -36.2500,    4.0625,1478545197.776
   21.5000,  -35.4375,    5.3125,1478545197.797
   22.9375,  -40.0625,    2.7500,1478545197.813
   31.6250,  -45.6875,    1.1875,1478545197.836
   47.3750,  -50.6250,   -0.5000,1478545197.857
   59.3125,  -51.6875,   -1.6250,1478545197.873
   65.1875,  -51.3750,   -2.5625,1478545197.896
   63.2500,  -49.0625,   -1.5000,1478545197.922
   51.9375,  -47.5000,   -0.6250,1478545197.933
   43.1250,  -47.6250,   -0.3750,1478545197.956
   48.8750,  -49.6250,   -2.3125,1478545197.977
   59.5000,  -51.6875,   -2.3750,1478545198.001
   63.5625,  -51.8125,   -2.6250,1478545198.016
   66.6250,  -49.5625,   -2.4375,1478545198.044
   67.6250,  -45.3750,   -0.3750,1478545198.054
   64.5000,  -41.0000,    0.8750,1478545198.076
   56.3125,  -38.6875,    0.0625,1478545198.097
   57.1875,  -37.5625,   -0.3750,1478545198.113
   61.1250,  -36.3125,   -0.5000,1478545198.135
   66.3125,  -33.1250,   -1.1250,1478545198.165
   69.7500,  -27.0625,    1.8750,1478545198.173
   71.9375,  -20.3125,    5.7500,1478545198.196
   71.3750,  -13.8125,    7.6250,1478545198.217
   63.1250,   -9.1250,    7.8125,1478545198.255
   47.9375,   -6.7500,    6.3750,1478545198.277
   31.4375,   -5.2500,    3.9375,1478545198.332
   15.8125,   -3.0625,    1.5625,1478545198.376
    5.6875,    0.9375,   -0.1875,1478545198.517
    7.1250,    1.8125,    0.6250,1478545198.606
   -6.5625,    0.0000,   -1.6250,1478545198.859
    1.8750,   -1.3125,   -0.6250,1478545198.985
   -3.5625,   -1.3750,   -2.5000,1478545199.000
   -0.9375,   -1.8750,   -1.2500,1478545199.075
    0.6250,   -2.0000,   -0.7500,1478545199.119
   -1.0625,   -1.0625,   -1.4375,1478545199.171
   -0.3750,   -0.8750,   -1.2500,1478545199.218
   -1.4375,   -1.5000,   -1.1875,1478545199.263
   -3.9375,   -3.6875,   -1.3125,1478545199.265
   -2.8125,   -3.3750,   -1.2500,1478545199.306
    0.2500,   -2.9375,   -1.3750,1478545199.308
    1.0000,   -3.2500,   -1.5625,1478545199.358
   -0.5625,   -2.9375,   -2.3125,1478545199.404
    0.8750,   -1.8125,   -1.2500,1478545199.417
    2.3750,   -0.6875,    0.4375,1478545199.449
    2.4375,   -0.4375,    0.6875,1478545199.463
   -0.0625,   -0.6875,    0.5000,1478545199.494
   -3.3125,   -0.5625,    0.2500,1478545199.501
   -3.1875,   -0.3750,    0.0000,1478545199.509
   -0.7500,    0.0625,   -0.1875,1478545199.540
    0.5625,    0.5000,   -0.8750,1478545199.554
    1.8125,    0.8125,   -0.8125,1478545199.584
    2.1875,    1.2500,   -0.9375,1478545199.596
    2.1875,    1.3125,   -0.5000,1478545199.630
    2.3750,    2.5000,   -0.6250,1478545199.674
    2.8750,    3.4375,   -0.2500,1478545199.682
    0.4375,    2.5625,   -0.6250,1478545199.727
   -3.7500,    1.7500,   -1.0625,1478545199.729
   -3.5000,    1.0000,   -1.6875,1478545199.773
   -1.2500,   -0.1250,   -1.3125,1478545199.779
    3.0000,   -1.2500,   -1.0625,1478545199.785
    1.7500,   -1.5625,   -0.3750,1478545199.818
   -0.5625,   -1.3750,   -0.7500,1478545199.862
   -0.6875,   -1.5625,   -0.1875,1478545199.951
   -1.3750,   -1.2500,   -0.1250,1478545199.959
    0.1875,   -0.8125,    0.6250,1478545199.995
   -0.4375,   -0.3750,    0.4375,1478545200.004
    0.3750,   -0.4375,    0.6875,1478545200.006
    0.0000,   -0.2500,    0.6250,1478545200.050
    0.8125,   -0.1250,    0.7500,1478545200.064
    0.4375,    0.1250,    0.9375,1478545200.066
    0.1250,    0.5000,    0.8750,1478545200.094
   -0.1250,    0.3750,    0.8125,1478545200.139
   -1.2500,    0.1875,    1.3125,1478545200.153
    0.0000,    0.1250,    1.0625,1478545200.186
   -0.5625,    0.1250,    0.7500,1478545200.197
   -0.3125,   -0.1875,    0.5625,1478545200.229
    0.3750,   -0.6250,   -0.0625,1478545200.235
   -1.5000,   -0.8125,   -0.3125,1478545200.251
   -1.3125,   -0.6875,   -0.5000,1478545200.283
    0.4375,   -0.5625,   -0.6875,1478545200.327
    0.3750,   -0.3125,   -0.7500,1478545200.364
    0.5625,    0.0625,   -0.8125,1478545200.364
    1.3125,    0.3125,   -0.2500,1478545200.372
   -1.3750,    0.3125,   -0.3125,1478545200.374
   -1.7500,    0.1875,   -0.2500,1478545200.416
   -1.2500,    0.0625,   -0.0625,1478545200.419
   -0.3750,   -0.1250,   -0.2500,1478545200.432
    0.6250,   -0.3125,   -0.1875,1478545200.464
   -0.7500,   -0.3750,   -0.2500,1478545200.506
   -1.6250,   -0.1250,   -0.2500,1478545200.509
   -1.0625,    0.0000,    0.3125,1478545200.514
   -0.0625,    0.3750,    0.2500,1478545200.528
    0.6875,    0.5625,    0.6250,1478545200.559
    0.1875,    0.5000,    1.0000,1478545200.562
   -0.9375,    0.1875,    0.7500,1478545200.605
   -0.7500,    0.1250,    0.6250,1478545200.611
   -1.1875,   -0.1250,    0.5000,1478545200.619
   -1.3125,   -0.2500,    0.3125,1478545200.695
   -0.7500,   -0.2500,    0.0625,1478545200.708
    1.3125,    1.2500,   -0.1250,1478545200.739
    0.8125,    1.5000,   -0.0625,1478545200.745
   -0.0625,    1.0000,    0.0000,1478545200.785
   -2.0625,    0.3750,   -0.4375,1478545200.789
   -2.5000,   -0.5000,   -0.9375,1478545200.798
   -1.3125,   -0.9375,   -0.8125,1478545200.837
    0.6875,   -0.9375,   -0.1875,1478545200.882
    1.4375,   -0.8750,    0.4375,1478545200.884
    1.8125,   -0.6250,    0.8125,1478545200.928
    0.8750,   -0.4375,    1.1875,1478545200.971
   -0.4375,    0.6250,   -0.1875,1478545201.022
   -1.9375,    0.6250,   -0.0625,1478545201.063
    0.6875,    0.6875,    0.1250,1478545201.064
    1.0625,    0.5000,   -0.1250,1478545201.070
    1.5625,    0.3125,    0.2500,1478545201.070
   -0.6250,    0.1875,    0.1250,1478545201.105
   -1.1250,    0.1875,    0.2500,1478545201.112
   -0.1250,   -0.2500,    0.3125,1478545201.159
    0.4375,   -0.1875,    0.1875,1478545201.162
    1.2500,   -0.3750,    0.5000,1478545201.217
    1.0000,   -0.3125,    0.5625,1478545201.249
   -0.0625,   -0.3750,    0.4375,1478545201.264
    0.6875,   -0.3125,    0.0625,1478545201.294
    1.9375,   -0.1875,    0.0000,1478545201.296
    1.8125,    0.0625,   -0.2500,1478545201.310
    0.5625,    0.2500,   -0.3125,1478545201.341
   -0.1875,    0.2500,   -0.6250,1478545201.345
   -0.7500,    0.0625,   -0.5000,1478545201.384
   -1.1875,    0.1250,   -0.6250,1478545201.396
    0.6875,    0.1875,   -0.2500,1478545201.438
    0.3750,   -0.1875,    0.1875,1478545201.496
    0.7500,    0.0000,   -0.0625,1478545201.526
    0.3125,    0.1875,    0.3750,1478545201.529
   -1.1250,   -0.1250,    0.6250,1478545201.549
    0.0000,    0.3125,    0.3125,1478545201.571
    0.5625,    0.3125,    0.5000,1478545201.576
   -0.3125,    0.2500,    0.3125,1478545201.591
   -0.3125,    0.2500,    0.1250,1478545201.617
   -0.4375,    0.2500,   -0.1250,1478545201.628
   -0.2500,    0.3750,   -0.3125,1478545201.668
    0.2500,    0.1875,   -0.3750,1478545201.670
    0.9375,    0.0000,   -0.3750,1478545201.714
    0.8750,    0.0625,   -0.4375,1478545201.720
    0.5000,    0.1250,   -0.2500,1478545201.726
    0.7500,    0.3125,   -0.1875,1478545201.759
    0.8125,    0.6250,   -0.4375,1478545201.774
    0.1875,    0.7500,   -0.2500,1478545201.805
   -0.6250,    0.6875,   -0.5000,1478545201.849
    0.4375,    0.4375,   -0.4375,1478545201.851
    1.6875,    0.3125,   -0.2500,1478545201.871
    2.5625,    0.1875,    0.3125,1478545201.903
    4.8750,    0.1875,   -0.1250,1478545201.947
    5.4375,   -0.3125,    0.2500,1478545201.948
    3.6250,   -0.7500,    0.1875,1478545201.963
    0.0000,   -1.0625,   -0.1250,1478545201.994
   -0.5625,   -0.5000,    0.0625,1478545202.005
   -1.3125,   -0.2500,    0.5625,1478545202.038
   -1.0000,   -0.1875,    0.4375,1478545202.051
    0.0000,   -0.0625,    0.7500,1478545202.082
    0.3125,   -0.1875,    0.5625,1478545202.096
    0.0000,   -0.6250,    0.0625,1478545202.127
   -1.0000,   -0.6875,   -0.6250,1478545202.141
   -0.6875,   -1.1250,   -0.6250,1478545202.224
    1.1250,   -1.0000,   -1.0625,1478545202.226
    1.1250,    0.1250,   -0.8125,1478545202.271
   -0.2500,    0.1875,   -1.0625,1478545202.314
   -0.2500,    0.0625,   -0.7500,1478545202.329
    0.9375,   -1.3750,   -0.6250,1478545202.336
    0.3125,   -1.9375,   -0.3750,1478545202.410
    0.8750,   -2.0000,    0.1250,1478545202.418
    1.5000,   -1.3125,    0.1875,1478545202.456
    1.1250,   -0.8125,    0.1875,1478545202.459
   -0.6875,    0.3125,   -0.0625,1478545202.502
   -0.5625,    0.6250,    0.0000,1478545202.509
   -1.0625,    0.5625,    0.1875,1478545202.514
   -0.4375,    0.4375,    0.3125,1478545202.547
   -1.0000,    0.0625,    0.4375,1478545202.591
   -0.1875,   -0.3750,    0.1250,1478545202.594
    0.2500,   -0.3750,    0.0625,1478545202.608
    0.8750,   -0.1875,    0.0625,1478545202.614
    0.6250,   -0.1875,    0.1250,1478545202.682
    0.0625,    0.0000,    0.3750,1478545202.696
   -3.0000,    0.1875,    0.6250,1478545202.727
   -1.9375,    0.4375,    0.6250,1478545202.732
    1.6875,    0.5000,    0.8750,1478545202.779
    3.6250,    0.4375,    0.9375,1478545202.785
    4.8125,    0.0625,    0.8125,1478545202.825
    3.3750,   -0.5625,    0.5625,1478545202.839
    0.0000,   -0.9375,    0.2500,1478545202.840
   -1.6250,   -0.4375,    0.0625,1478545202.871
   -2.0000,    0.4375,    0.3125,1478545202.914
    0.6875,    1.1875,    0.5000,1478545202.916
    1.8750,    1.1875,    0.3750,1478545202.960
   -0.4375,    1.1875,   -0.1875,1478545202.962
   -2.8125,    0.9375,   -0.1250,1478545202.972
   -4.8750,    0.8125,   -0.3125,1478545202.982
   -4.3750,    0.5625,   -0.3125,1478545203.013
   -3.5000,    0.1875,   -0.2500,1478545203.019
   -5.4375,   -0.2500,   -0.8125,1478545203.056
   -7.3125,   -0.6875,   -1.7500,1478545203.059
   -2.2500,    1.4375,   -2.4375,1478545203.132
   93.1250,   18.2500,   -0.5000,1478545203.138
  467.5000,  -53.0000,  128.5625,1478545203.145
  895.6875,  -84.6250,  110.7500,1478545203.168
  952.3750,  -22.1875,  112.0625,1478545203.189
  233.7500,  -28.8125,   84.4375,1478545203.205
 -333.8125,    8.0000,  -14.6250,1478545203.228
 -612.8125,  -60.6875,  -13.1875,1478545203.249
 -439.2500, -106.1250,  -53.7500,1478545203.273
  129.8125,    9.0000,  -24.9375,1478545203.288
  334.8125,   36.8125,   -6.0625,1478545203.317
  179.8125,    4.1250,   -7.4375,1478545203.333
  -16.0000,  -10.9375,  -26.5000,1478545203.348
  -82.2500,   -9.8750,  -26.2500,1478545203.371
  -41.0000,   -1.5625,  -18.2500,1478545203.392
   16.8125,    4.7500,   -9.8750,1478545203.408
   29.5625,    3.8750,    0.1875,1478545203.438
   14.6875,   -2.0000,   -0.0625,1478545203.452
    1.8750,   -4.4375,    3.1875,1478545203.470
   -5.8125,   -4.5000,    4.6250,1478545203.491
    3.4375,   -0.6250,    6.3125,1478545203.512
   10.5625,    1.6875,    8.1250,1478545203.528
    5.6875,    3.1250,    6.0625,1478545203.551
   -4.4375,    2.0000,    4.7500,1478545203.565
  -11.5625,   -1.3125,    5.0625,1478545203.588
  -10.3750,    1.8125,    4.0000,1478545203.611
   -7.5000,    1.2500,    2.8125,1478545203.625
   -2.6250,   -0.5000,    4.4375,1478545203.648
    1.8125,   -2.5000,    5.4375,1478545203.671
   -8.6875,   -3.0625,    1.9375,1478545203.692
  -14.3125,   -3.9375,    1.6250,1478545203.715
  -11.8750,   -5.8125,    2.3125,1478545203.730
   -4.9375,   -6.1250,    2.1875,1478545203.745
   -1.9375,   -6.4375,    3.2500,1478545203.768
   -7.7500,   -7.0000,    3.9375,1478545203.791
  -13.7500,   -7.1875,    4.0000,1478545203.812
  -11.8750,   -4.6875,    4.2500,1478545203.828
   -6.1250,    0.7500,    5.8125,1478545203.851
    1.3750,    6.5000,    2.5625,1478545203.872
    7.5625,   10.5625,   -0.6250,1478545203.888
   10.5000,   11.1875,   -4.0625,1478545203.911
   10.1250,    8.8125,   -5.5000,1478545203.932
    7.9375,    4.9375,   -3.8125,1478545203.948
    6.4375,    1.1250,   -1.3125,1478545203.977
    7.5000,   -0.4375,    1.0000,1478545203.993
    9.1250,   -0.1875,    3.9375,1478545204.008
    6.8750,   -0.4375,    5.0625,1478545204.038
    1.2500,   -1.8125,    5.0625,1478545204.052
   -3.4375,   -2.6875,    4.0625,1478545204.068
   -5.1250,   -2.9375,    3.8750,1478545204.091
   -2.9375,   -2.0000,    2.8750,1478545204.112
    1.8750,   -0.8125,    1.9375,1478545204.128
    4.5625,    0.2500,    1.5000,1478545204.151
    2.0625,    0.8125,    0.4375,1478545204.172
   -1.6250,    0.8125,   -0.7500,1478545204.188
   -3.6875,    0.8125,   -0.8125,1478545204.210
   -2.9375,    0.6875,   -0.8125,1478545204.233
   -1.4375,    0.0625,   -1.0000,1478545204.248
    0.1875,   -0.5625,   -0.5625,1478545204.270
   -0.0625,   -1.0000,   -0.5625,1478545204.293
   -1.4375,   -1.1250,   -0.6875,1478545204.315
   -1.0625,   -1.3750,   -1.3750,1478545204.330
   -0.8125,   -1.0000,   -1.1875,1478545204.359
   -1.1250,   -0.4375,   -1.9375,1478545204.368
   -0.4375,   -0.1250,   -2.1875,1478545204.391
   -0.2500,    0.5000,   -1.8125,1478545204.414
   -0.4375,    0.8125,   -1.9375,1478545204.428
   -0.6250,    0.8750,   -1.5625,1478545204.451
   -0.5625,    0.6250,   -1.3125,1478545204.473
   -1.6875,    0.3125,   -0.8125,1478545204.488
   -2.0000,    0.0625,   -0.8125,1478545204.511
   -0.6250,    0.0000,    0.1875,1478545204.533
    0.1250,    0.0625,    0.1875,1478545204.554
    0.3125,    0.0000,   -0.1250,1478545204.571
   -0.5625,    0.1875,   -0.4375,1478545204.593
   -3.6875,    0.6250,   -0.5000,1478545204.608
   -9.2500,    0.8750,   -1.8125,1478545204.631
  -13.9375,    0.8125,   -2.5625,1478545204.659
  -16.5625,   -0.1250,   -3.5000,1478545204.667
  -17.5625,   -0.6875,   -3.6875,1478545204.691
  -16.6250,   -1.1250,   -3.5000,1478545204.713
  -10.9375,   -1.0625,   -2.6875,1478545204.734
   -2.8750,   -0.3125,   -1.8125,1478545204.751
    3.1250,    0.3750,   -1.1875,1478545204.773
    5.3750,    0.5000,   -1.5625,1478545204.794
    3.1875,    0.4375,   -1.5000,1478545204.811
   -1.0000,    0.0000,   -2.0000,1478545204.839
   -1.7500,    0.1875,   -1.6250,1478545204.854
   -0.0625,    0.4375,   -0.8125,1478545204.870
    1.5625,    0.1875,   -0.0625,1478545204.901
    2.1250,   -0.0625,    0.5625,1478545204.914
    0.6250,   -0.5625,    0.5625,1478545204.931
    0.0000,   -0.4375,    0.3750,1478545204.953
   -0.9375,   -0.5000,    0.5625,1478545204.982
   -1.2500,    0.0625,    0.1875,1478545204.991
   -0.3125,    0.4375,    0.3125,1478545205.013
   -0.2500,    0.5000,    0.4375,1478545205.035
   -0.9375,    0.6875,    0.0625,1478545205.051
   -0.5625,    0.5625,    0.1875,1478545205.073
   -0.6250,    0.6250,    0.6875,1478545205.102
   -0.1250,    1.0000,    0.7500,1478545205.117
    0.5625,    1.1250,    1.1250,1478545205.133
   -0.1875,    1.0000,    0.9375,1478545205.154
   -0.6250,    0.8750,    0.5625,1478545205.171
   -0.5625,    0.8125,    0.4375,1478545205.193
    0.3750,    0.8750,    0.2500,1478545205.215
    0.7500,    1.0625,    0.1250,1478545205.230
    1.2500,    1.0000,   -0.1875,1478545205.253
    0.8125,    1.1875,   -0.2500,1478545205.275
   -0.3125,    0.2500,   -0.6875,1478545205.290
   -0.8750,    0.8750,   -0.7500,1478545205.313
    0.2500,    0.8125,   -0.6250,1478545205.335
    0.1250,    0.5000,    0.1250,1478545205.350
   -0.6250,    0.1250,   -0.6875,1478545205.380
   -0.5000,   -0.0625,   -0.0625,1478545205.395
   -1.0000,   -0.2500,   -0.0625,1478545205.410
    1.1875,   -0.4375,   -0.3750,1478545205.433
    1.0625,   -0.2500,    0.5625,1478545205.456
   -0.6250,   -0.3750,   -0.4375,1478545205.470
   -0.2500,    0.0625,    0.1250,1478545205.493
   -0.5000,    0.1250,    0.3125,1478545205.516
   -0.5625,    0.1875,    0.2500,1478545205.539
    0.1250,    0.2500,    0.0625,1478545205.553
   -0.1875,    0.1250,    0.2500,1478545205.576
   -1.0625,   -0.1875,   -0.1875,1478545205.590
   -0.4375,   -0.6250,   -0.1875,1478545205.613
    1.1250,   -0.3125,   -0.0625,1478545205.636
    1.2500,   -0.5000,    0.0000,1478545205.658
    0.6250,   -0.1250,   -0.1250,1478545205.673
   -0.2500,   -0.1250,   -0.3125,1478545205.703
   -0.6250,   -0.0625,   -0.3125,1478545205.717
   -0.6250,   -0.2500,   -0.3750,1478545205.733
    0.8125,    0.2500,   -0.2500,1478545205.756
    1.8750,    0.0000,    0.3750,1478545205.777
    1.4375,    0.0000,    0.8750,1478545205.793
    1.3750,   -0.3125,    0.5000,1478545205.816
    2.2500,   -0.5000,    0.3750,1478545205.837
    2.1250,   -1.0000,   -0.4375,1478545205.853
    1.5625,   -1.3125,   -0.6875,1478545205.875
    3.1875,   -1.4375,   -1.3750,1478545205.897
    4.7500,   -1.4375,   -1.5625,1478545205.913
    3.7500,   -1.4375,   -1.5000,1478545205.935
    1.6875,   -1.5625,   -1.7500,1478545205.957
    1.7500,   -1.8750,   -1.2500,1478545205.981
    3.6875,   -2.0625,   -0.6875,1478545205.996
    4.7500,   -1.6875,   -0.0625,1478545206.017
    2.6875,   -1.6250,    0.2500,1478545206.033
   -1.0625,   -1.3125,    0.1250,1478545206.056
   -3.0000,   -1.0000,   -0.0625,1478545206.077
   -2.6250,   -0.7500,    0.0000,1478545206.093
   -0.6250,   -0.3750,   -0.6250,1478545206.116
    0.7500,   -0.4375,   -0.5000,1478545206.138
    1.1250,   -0.3125,   -1.0625,1478545206.153
   -0.1250,   -0.3750,   -1.0000,1478545206.176
   -1.3750,   -0.5625,   -1.0000,1478545206.198
   -0.6250,   -0.4375,   -0.6250,1478545206.213
    0.8750,   -1.0000,   -0.0625,1478545206.236
    1.5625,   -1.3750,    0.3750,1478545206.258
    0.8750,   -1.2500,    0.5625,1478545206.279
   -0.6875,   -1.1250,    0.6875,1478545206.295
   -1.3750,   -0.4375,    0.5625,1478545206.334
   -0.6250,    0.6250,   -0.2500,1478545206.336
   -1.2500,    1.6250,   -0.8125,1478545206.341
   -1.1250,    2.2500,   -1.7500,1478545206.361
   -0.5625,    2.5625,   -2.0000,1478545206.383
    0.1875,    2.5625,   -3.0625,1478545206.400
    0.6250,    1.8125,   -3.5625,1478545206.421
    0.0625,    1.0000,   -3.1250,1478545206.443
   -1.3750,   -0.1250,   -2.1250,1478545206.460
   -3.1250,   -0.8750,   -2.0000,1478545206.489
   -2.8750,   -0.8750,   -1.5625,1478545206.504
   -1.6875,   -1.1875,   -0.6250,1478545206.519
   -0.6250,   -1.0000,    0.6250,1478545206.541
   -0.4375,   -0.6250,    0.6250,1478545206.564
   -1.6875,   -0.6250,    0.8750,1478545206.579
   -3.1875,   -0.6875,    0.6250,1478545206.601
   -1.5625,   -0.2500,    0.6250,1478545206.624
   -0.3125,    0.0000,    0.6250,1478545206.639
   -0.9375,   -0.3125,    0.2500,1478545206.661
   -2.0000,   -0.6875,   -0.0625,1478545206.684
   -1.6875,   -0.9375,   -0.4375,1478545206.699
   -0.3750,   -0.7500,   -0.2500,1478545206.721
    1.0000,   -0.9375,   -0.4375,1478545206.744
    0.6250,   -0.5625,   -0.7500,1478545206.767
   -0.9375,   -0.3750,   -1.1875,1478545206.782
   -2.8750,   -0.2500,   -1.1250,1478545206.812
   -2.9375,    0.0625,   -1.3750,1478545206.820
   -1.6875,    0.3750,   -1.1875,1478545206.841
   -2.6250,    0.6875,   -1.5000,1478545206.863
   -3.1875,    2.1875,   -1.5000,1478545206.880
   -9.2500,    5.1875,   -2.0000,1478545206.901
  -23.3750,    9.6875,   -3.9375,1478545206.926
  -60.0625,   20.0000,   -8.5000,1478545206.940
 -158.8750,   40.5000,  -29.5625,1478545206.961
 -283.5625,   58.3125, -103.9375,1478545206.983
 -576.5000,   28.8125, -130.1875,1478545207.000
 -908.7500,   20.5000, -125.6250,1478545207.029
 -997.4375,   16.1875, -148.2500,1478545207.046
 -685.6875,   25.8125, -183.5000,1478545207.060
 -203.3750,   31.8125,  -25.8125,1478545207.092
  234.3125,   72.1875,   32.3125,1478545207.105
  454.6875,   76.1875,   -5.5000,1478545207.135
  296.2500,   38.1250,  -47.2500,1478545207.141
  -60.1250,   11.3125,  -63.4375,1478545207.174
 -224.7500,    9.0625,  -44.5625,1478545207.183
 -177.3125,    5.3125,   -9.7500,1478545207.210
   24.1250,    8.3125,    3.1250,1478545207.231
  169.8125,    9.2500,   22.1875,1478545207.241
  144.0625,   -1.3125,   17.8750,1478545207.280
   25.6875,   -7.1250,    4.8125,1478545207.285
  -46.8750,   -7.2500,    1.3750,1478545207.339
  -38.3750,   -7.1875,    6.9375,1478545207.355
    3.0625,   -4.5000,    9.8125,1478545207.376
   33.9375,   -5.8750,   12.3750,1478545207.384
   46.3125,   -4.9375,   11.8125,1478545207.397
   38.8125,   -2.2500,   10.4375,1478545207.420
   19.1875,   -2.8125,    7.9375,1478545207.423
   12.8750,   -3.6875,    3.8125,1478545207.467
    9.8125,   -1.2500,    3.7500,1478545207.471
    0.5000,   -1.8125,    2.5000,1478545207.511
   -5.1250,   -1.0000,    1.5000,1478545207.513
    1.0625,    1.0625,   -0.5625,1478545207.524
    3.9375,    1.8750,   -1.8750,1478545207.555
    3.8750,    3.6875,   -3.5000,1478545207.562
    9.1250,    4.1875,   -4.6875,1478545207.603
    7.2500,    4.5000,   -4.9375,1478545207.608
    2.0625,    2.7500,   -4.2500,1478545207.646
    2.5625,    1.5000,   -3.3750,1478545207.663
    2.6250,    1.4375,   -2.8750,1478545207.663
    7.3125,    1.3750,   -1.8125,1478545207.692
    8.5000,    1.4375,   -1.5625,1478545207.699
    3.9375,    0.9375,   -1.8125,1478545207.737
    0.3750,    0.8750,   -1.7500,1478545207.742
    0.6875,    0.1875,   -2.3125,1478545207.783
    1.0000,   -1.3125,   -2.2500,1478545207.788
    3.0000,   -1.0625,   -2.4375,1478545207.802
    2.3125,   -1.0625,   -1.7500,1478545207.826
    1.0000,   -1.3125,   -2.0625,1478545207.841
    1.0000,   -1.0625,   -1.7500,1478545207.880
    1.1250,   -0.8125,   -1.1250,1478545207.885
    4.0625,    0.0625,   -1.3125,1478545207.925
    4.5000,    1.5000,   -1.0000,1478545207.930
    3.6250,    1.7500,   -0.3750,1478545207.939
    0.1875,    1.6250,    0.3750,1478545207.969
   -0.8125,    1.4375,   -0.0625,1478545207.982
    1.6250,    1.3125,    0.0000,1478545208.012
    5.5625,    1.3125,   -0.0625,1478545208.021
    4.8750,    1.3125,   -0.1250,1478545208.059
    3.0000,    1.0000,   -0.6250,1478545208.061
    2.6875,    1.2500,   -1.1250,1478545208.081
    1.5625,    1.0625,   -1.2500,1478545208.104
    2.4375,    1.3125,   -2.0000,1478545208.124
    0.2500,    1.3125,   -1.7500,1478545208.156
   -1.0625,    1.2500,   -1.6875,1478545208.163
    0.6875,    1.2500,   -1.3750,1478545208.201
    2.7500,    2.0000,   -1.2500,1478545208.204
    4.3750,    2.0000,   -0.8125,1478545208.247
    4.2500,    1.7500,   -1.1250,1478545208.252
    2.3750,    1.5625,   -1.9375,1478545208.261
    2.3750,    2.2500,   -2.4375,1478545208.284
    3.5000,    2.1875,   -2.5625,1478545208.297
    4.5000,    1.1875,   -2.3125,1478545208.322
    4.8125,   -0.2500,   -2.5000,1478545208.343
    7.7500,   -0.9375,   -2.8125,1478545208.357
   13.1875,    0.8125,   -4.5625,1478545208.381
   12.3750,    3.3750,   -3.5000,1478545208.403
    7.8750,    3.0000,   -3.8125,1478545208.433
    6.8750,    0.4375,   -4.8125,1478545208.440
    4.3750,   -3.8125,   -4.5625,1478545208.479
   -0.5625,   -5.3750,   -3.6875,1478545208.484
    8.8750,   -2.5625,   -6.0000,1478545208.502
   13.1250,   -0.5000,   -4.9375,1478545208.524
   14.3125,   -0.3750,   -4.7500,1478545208.562
   21.7500,   -1.4375,   -5.2500,1478545208.564
   24.8125,   -4.0000,   -4.8125,1478545208.583
   25.3750,   -4.8125,   -5.2500,1478545208.605
   34.9375,   -3.0625,   -6.8750,1478545208.621
   39.3125,   -2.8125,   -5.2500,1478545208.643
   43.0625,   -4.2500,   -4.9375,1478545208.664
   41.5625,   -8.5000,   -6.5000,1478545208.681
   33.2500,  -13.0625,   -7.2500,1478545208.751
   31.9375,  -14.3125,  -10.1250,1478545208.752
   36.0000,  -12.3750,  -12.0000,1478545208.752
   39.5000,  -12.3750,  -13.5000,1478545208.763
   44.3750,  -15.0625,  -18.8750,1478545208.784
   47.1875,  -19.8750,  -21.0625,1478545208.800
   38.3125,  -21.1875,  -23.8750,1478545208.823
   49.6250,  -16.5625,  -28.2500,1478545208.844
   63.6250,  -11.6250,  -30.5625,1478545208.860
   73.0625,  -11.0625,  -32.1875,1478545208.883
   75.6250,  -12.6250,  -31.1875,1478545208.904
   45.5625,  -14.3125,  -27.0625,1478545208.920
   -0.1250,  -11.6875,  -29.7500,1478545208.943
  -43.1250,  -10.3750,  -33.2500,1478545208.964
  -59.0000,  -15.2500,  -29.0625,1478545208.988
  -49.5625,  -18.9375,  -17.6875,1478545209.003
  -28.5000,  -19.1250,   -3.2500,1478545209.033
   -5.0625,  -16.7500,    7.1875,1478545209.054
   27.6250,  -16.2500,   12.3750,1478545209.063
   51.6875,  -15.1875,   17.0625,1478545209.102
   69.1875,  -12.0000,   15.8750,1478545209.107
   73.8750,   -8.0000,   13.1250,1478545209.123
   43.3125,   -3.8750,    8.3125,1478545209.146
    8.6250,   -2.1250,   -1.6875,1478545209.167
  -33.7500,   -3.1875,  -12.8125,1478545209.183
  -56.1250,   -0.6250,  -19.0625,1478545209.206
  -50.6250,    5.1875,  -29.2500,1478545209.227
  -55.6250,    5.2500,  -33.5000,1478545209.243
  -68.3125,    7.6875,  -35.6250,1478545209.266
  -87.4375,    8.4375,  -38.8125,1478545209.287
  -93.8750,    7.0000,  -37.4375,1478545209.311
  -75.1875,    7.6250,  -36.5625,1478545209.326
  -59.1875,    8.1875,  -33.3750,1478545209.347
  -43.1875,    8.5000,  -25.3125,1478545209.363
  -24.0000,   11.3750,  -22.6875,1478545209.385
   -3.5000,   15.2500,  -21.6875,1478545209.407
   -2.0000,   15.5625,  -19.3750,1478545209.423
  -26.3125,   12.0625,  -17.8750,1478545209.446
  -56.0000,    9.2500,  -21.5000,1478545209.467
  -67.0000,    8.8125,  -22.2500,1478545209.484
  -46.8750,    9.1250,  -17.5000,1478545209.505
  -22.0000,   11.2500,  -10.1875,1478545209.544
   -1.9375,   11.0625,   -6.8125,1478545209.546
    3.0000,    9.6250,   -4.8125,1478545209.566
    3.6250,    1.5000,   -4.6250,1478545209.589
    6.2500,   -7.3750,    0.1250,1478545209.603
  -14.6250,   -9.9375,    1.0000,1478545209.626
   -8.1250,   -6.3750,   -1.7500,1478545209.647
    5.1875,   -4.6250,   -1.5000,1478545209.671
   12.8125,    0.8750,   -2.3125,1478545209.686
    8.1250,    1.8750,   -3.0000,1478545209.714
    0.3750,    0.2500,   -2.8750,1478545209.724
    3.3125,    0.3750,   -3.0625,1478545209.746
   14.1250,    1.1250,   -1.3750,1478545209.767
   21.0625,    1.6875,   -1.5000,1478545209.783
   18.6875,    1.6250,   -3.1875,1478545209.822
   12.6250,    2.6875,   -1.0000,1478545209.859
    6.0625,    4.0625,   -1.5625,1478545209.867
    3.4375,    6.5000,    0.1875,1478545209.872
   -3.6875,    8.0625,    1.6875,1478545209.887
   -9.6875,    7.8750,    1.6875,1478545209.910
  -14.8125,    6.8125,    2.7500,1478545209.926
  -12.5625,    5.7500,    1.5625,1478545209.948
   -9.6875,    3.1250,    0.5625,1478545209.963
   -5.0000,    1.2500,   -0.2500,1478545209.993
    0.3125,   -0.2500,    0.1250,1478545210.008
    7.3750,   -2.1875,    0.1875,1478545210.023
   14.5000,   -3.2500,    0.1250,1478545210.045
   11.4375,   -4.3750,   -1.1250,1478545210.068
    6.3125,   -5.0000,   -2.4375,1478545210.098
    2.8750,   -5.1250,   -3.0625,1478545210.105
    3.5625,   -4.1875,   -3.3750,1478545210.145
    5.1875,   -3.8125,   -2.9375,1478545210.149
    4.7500,   -3.1875,   -2.0000,1478545210.166
    6.3125,   -2.1875,   -2.1875,1478545210.188
    5.3125,   -1.6875,   -2.0625,1478545210.202
    3.3750,   -0.8750,   -2.5625,1478545210.226
    2.2500,    0.2500,   -2.8750,1478545210.256
    1.9375,    0.8125,   -2.4375,1478545210.269
    2.5000,    1.2500,   -2.1250,1478545210.286
    3.7500,    1.7500,   -2.1250,1478545210.308
    4.1250,    1.3125,   -2.1875,1478545210.322
    3.8750,    0.5000,   -2.3125,1478545210.346
    3.0000,    0.3750,   -1.9375,1478545210.376
    2.0000,    0.0625,   -1.7500,1478545210.408
    0.6250,   -0.3125,   -1.5625,1478545210.419
   -0.3125,   -0.7500,   -1.6875,1478545210.428
    0.3125,   -0.8125,   -1.8125,1478545210.449
    1.7500,   -0.1875,   -1.1875,1478545210.465
    1.8125,    0.2500,   -0.5625,1478545210.488
    0.8750,    0.1875,   -0.7500,1478545210.509
    0.0000,    0.0625,   -0.8750,1478545210.525
    1.0625,   -0.0625,   -0.6875,1478545210.548
    1.8125,    0.0000,   -0.5000,1478545210.569
    2.1250,    0.0000,   -0.3125,1478545210.586
    2.0000,   -0.2500,   -0.3750,1478545210.608
    2.6250,   -0.1875,   -0.5625,1478545210.629
    1.8750,   -0.0625,   -0.5000,1478545210.653
    1.3750,   -0.1250,   -0.4375,1478545210.668
    0.6875,   -0.1250,   -0.6250,1478545210.698
    0.4375,   -0.1250,   -0.2500,1478545210.706
    1.0625,   -0.1875,   -0.4375,1478545210.734
    0.8125,   -0.3125,   -0.4375,1478545210.749
    2.4375,   -0.5000,   -0.0625,1478545210.766
    1.8750,   -0.3750,   -0.2500,1478545210.789
    0.2500,   -0.3750,   -0.3125,1478545210.809
    0.5625,   -0.2500,   -0.1875,1478545210.826
    0.9375,   -0.5000,   -0.1875,1478545210.848
    1.3750,   -0.4375,   -0.1875,1478545210.871
    2.0000,   -0.1875,   -0.2500,1478545210.885
    1.2500,   -0.3750,   -0.3125,1478545210.908
    0.3750,   -0.1250,   -0.3125,1478545210.930
    1.6250,   -0.1875,   -0.6250,1478545210.950
    1.1875,   -0.1250,   -0.3125,1478545210.976
    1.6250,    0.1250,    0.0625,1478545210.990
    1.0625,   -0.1250,   -0.0625,1478545211.013
    0.2500,   -0.2500,    0.0625,1478545211.028
   -0.5625,   -0.1250,    0.0625,1478545211.058
   -1.1875,    0.0625,   -0.0625,1478545211.065
   -0.1875,   -0.1250,   -0.1250,1478545211.088
    0.9375,   -0.4375,   -0.4375,1478545211.111
    1.3750,   -0.5625,   -0.1875,1478545211.125
    0.6250,   -0.2500,   -0.2500,1478545211.148
    0.0625,   -0.2500,   -0.6250,1478545211.170
   -0.2500,   -0.4375,   -0.8750,1478545211.209
    0.2500,   -0.2500,   -0.8750,1478545211.211
    1.0000,    0.0000,   -0.5625,1478545211.231
    1.5625,   -0.1875,   -0.3125,1478545211.253
    1.0625,   -0.3125,   -0.0625,1478545211.268
   -0.0625,   -0.3750,   -0.1875,1478545211.291
   -0.6250,   -0.1875,   -0.2500,1478545211.305
   -0.8750,   -0.3125,   -0.0625,1478545211.334
   -0.2500,   -0.1875,    0.0000,1478545211.351
    0.6875,   -0.1875,   -0.3125,1478545211.365
    0.3750,   -0.2500,   -0.3125,1478545211.388
    0.3125,    0.0625,   -0.1875,1478545211.411
   -0.1875,    0.0000,   -0.3125,1478545211.432
    0.3125,    0.4375,   -0.3750,1478545211.454
    0.8125,    0.3125,   -0.1250,1478545211.471
    1.6875,    0.0625,   -0.0625,1478545211.492
    1.0000,   -0.1875,    0.1875,1478545211.508
    0.1875,    0.1250,    0.3125,1478545211.531
   -0.3750,    0.2500,    0.5000,1478545211.551
   -0.6250,    0.2500,    0.1875,1478545211.568
   -0.3125,    0.0625,   -0.1250,1478545211.590
    0.2500,    0.0625,   -0.2500,1478545211.611
    1.0000,    0.2500,    0.0000,1478545211.628
    0.8125,    0.1875,   -0.0625,1478545211.658
    0.1875,   -0.0625,    0.0000,1478545211.671
   -0.3750,   -0.1875,    0.3125,1478545211.688
   -0.1250,   -0.1250,    0.3125,1478545211.711
   -0.2500,   -0.3125,    0.2500,1478545211.716
    0.1875,   -0.4375,    0.0625,1478545211.748
    0.3125,   -0.3750,    0.0000,1478545211.763
    0.6250,   -0.1250,   -0.1250,1478545211.776
    0.1875,   -0.0625,   -0.1250,1478545211.811
   -0.3750,    0.0000,    0.1875,1478545211.815
   -0.1250,    0.2500,    0.0625,1478545211.836
   -0.3750,    0.1875,    0.0625,1478545211.859
    0.0000,    0.2500,    0.3125,1478545211.874
    0.1250,    0.1875,    0.1250,1478545211.896
    0.0625,    0.1250,    0.0625,1478545211.921
   -0.1875,    0.2500,    0.0625,1478545211.935
   -0.4375,    0.2500,    0.1250,1478545211.957
   -0.0625,    0.2500,    0.1250,1478545211.981
    0.0000,    0.1250,    0.1250,1478545211.994
    0.1875,    0.5000,   -0.1250,1478545212.016
    0.3125,    0.6875,    0.0000,1478545212.041
   -0.7500,    0.6250,    0.1250,1478545212.053
    0.1250,    0.6875,   -0.0625,1478545212.085
    0.1250,    0.5000,   -0.0625,1478545212.098
    0.1250,    0.4375,    0.0000,1478545212.113
    0.3125,    0.5000,   -0.1250,1478545212.136
   -0.1875,    0.0000,    0.2500,1478545212.168
    0.4375,    0.0000,    0.2500,1478545212.173
   -0.1250,    0.0625,    0.0625,1478545212.196
   -0.3750,   -0.1250,   -0.0625,1478545212.218
    0.0000,    0.1250,    0.0625,1478545212.234
    0.3125,    0.0625,    0.0625,1478545212.259
    0.3125,    0.2500,   -0.5000,1478545212.279
    0.3125,    0.3750,   -0.1875,1478545212.294
    0.8125,    0.2500,    0.0625,1478545212.319
    0.5000,    0.2500,    0.0625,1478545212.334
   -0.7500,    0.0625,    0.2500,1478545212.364
   -0.3750,    0.1250,    0.0625,1478545212.376
   -0.4375,    0.1875,   -0.1875,1478545212.401
    0.1250,    0.1250,   -0.1250,1478545212.414
    1.0000,    0.2500,    0.1875,1478545212.436
    0.6875,    0.3750,    0.3125,1478545212.454
   -0.5000,    0.3125,    0.0625,1478545212.475
   -1.2500,    0.5000,   -0.0625,1478545212.496
   -0.7500,    0.4375,    0.0625,1478545212.514
    0.5000,    0.5000,    0.1875,1478545212.536
    0.8750,    0.5625,    0.1875,1478545212.597
    0.3750,    0.3750,    0.3125,1478545212.597
   -0.3125,    0.1875,    0.3125,1478545212.597
   -0.6250,   -0.1250,    0.5000,1478545212.616
   -0.1875,   -0.3125,    0.5000,1478545212.642
    0.1875,   -0.3125,    0.2500,1478545212.655
    0.3750,   -0.3125,   -0.0625,1478545212.685
    0.3750,   -0.2500,   -0.3750,1478545212.694
    0.3750,    0.0625,    0.1250,1478545212.722
    0.5000,    0.1250,    0.1250,1478545212.736
    0.0625,    0.1250,    0.0000,1478545212.755
   -0.6250,    0.0625,    0.0000,1478545212.777
   -0.4375,    0.0625,   -0.0625,1478545212.797
    0.4375,   -0.1875,    0.0625,1478545212.814
    0.8125,   -0.3125,   -0.0625,1478545212.843
    0.7500,   -0.5625,    0.1250,1478545212.856
    0.2500,   -0.6875,    0.0000,1478545212.874
    0.1250,   -0.6875,    0.0625,1478545212.896
    0.8125,   -0.6875,    0.0625,1478545212.919
    0.6250,   -0.6250,    0.0000,1478545212.934
    1.1250,   -0.5625,    0.1875,1478545212.957
    0.9375,   -0.3750,    0.3750,1478545212.976
   -0.3125,   -0.3125,    0.1250,1478545213.000
   -0.9375,   -0.3750,    0.0000,1478545213.016
   -0.5000,   -0.3750,    0.0000,1478545213.036
    1.0000,   -0.2500,   -0.0625,1478545213.054
    0.3125,   -0.2500,    0.0625,1478545213.077
    0.2500,   -0.2500,   -0.1250,1478545213.096
    0.1875,   -0.1875,   -0.2500,1478545213.146
   -0.1875,   -0.0625,   -0.3750,1478545213.150
   -0.1250,   -0.1250,   -0.3125,1478545213.156
    0.3125,   -0.1875,   -0.1875,1478545213.195
    0.4375,   -0.3125,   -0.2500,1478545213.198
    0.3125,   -0.5625,   -0.1250,1478545213.216
    0.6875,   -0.5000,   -0.3125,1478545213.242
    0.0625,   -0.5000,   -0.2500,1478545213.264
   -0.0625,   -0.4375,   -0.1250,1478545213.279
    0.0625,   -0.1875,   -0.1250,1478545213.294
    0.5625,   -0.1875,   -0.1250,1478545213.321
    0.3750,    0.0000,   -0.3750,1478545213.336
   -0.3125,    0.1250,   -0.5625,1478545213.356
    0.3750,    0.1875,   -0.3750,1478545213.376
    0.3125,    0.2500,   -0.1250,1478545213.397
   -0.1875,    0.1875,   -0.2500,1478545213.427
   -0.3750,    0.1250,   -0.5000,1478545213.436
   -0.3750,   -0.0625,   -0.1875,1478545213.475
    0.2500,    0.0000,   -0.2500,1478545213.479
   -0.0625,   -0.0625,   -0.1875,1478545213.511
    0.5000,   -0.0625,   -0.1875,1478545213.517
   -0.1875,   -0.0625,   -0.3750,1478545213.533
   -0.1250,   -0.1250,   -0.3125,1478545213.556
   -0.1250,   -0.0625,   -0.3125,1478545213.577
   -0.5625,   -0.0625,   -0.1875,1478545213.600
   -0.4375,   -0.1875,   -0.3750,1478545213.615
   -0.4375,   -0.1875,   -0.3125,1478545213.645
    0.0625,   -0.0625,   -0.0625,1478545213.653
   -0.1875,   -0.0625,   -0.5625,1478545213.675
   -0.5625,   -0.3125,   -0.3125,1478545213.707
    0.3125,   -0.1875,   -0.3125,1478545213.713
    0.1250,    0.0625,   -0.2500,1478545213.750
   -0.0625,    0.0000,   -0.3125,1478545213.758
   -0.0625,   -0.2500,   -0.3750,1478545213.773
    0.3750,   -0.0625,   -0.1250,1478545213.796
   -0.4375,   -0.0625,   -0.3125,1478545213.818
    0.0625,    0.3750,   -0.2500,1478545213.833
   -0.5000,    0.2500,    0.0000,1478545213.856
   -0.0625,    0.1250,    0.0625,1478545213.879
   -0.3125,    0.1875,    0.1250,1478545213.892
    0.1250,    0.0000,    0.1250,1478545213.922
    0.6250,   -0.1250,    0.0000,1478545213.938
   -0.3125,   -0.0625,   -0.1875,1478545213.952
    0.0625,    0.1250,   -0.1250,1478545213.983
    0.8125,    0.5000,   -0.3125,1478545213.998
    0.1875,    0.5000,   -0.1250,1478545214.028
    0.6250,    0.3125,    0.0000,1478545214.035
    0.4375,    0.3750,   -0.0625,1478545214.073
   -0.5000,    0.1250,    0.1250,1478545214.075
    0.1250,    0.0000,    0.0625,1478545214.096
    0.5625,   -0.2500,    0.0000,1478545214.118
    0.3750,   -0.1250,    0.1250,1478545214.141
    0.3750,    0.0000,   -0.0625,1478545214.155
    0.2500,    0.0625,    0.1250,1478545214.178
   -0.0625,   -0.0625,   -0.1250,1478545214.201
    0.0000,   -0.1250,    0.0000,1478545214.215
    0.1875,    0.0000,    0.0000,1478545214.261
    0.0625,    0.0625,    0.1250,1478545214.264
    0.0625,   -0.0625,    0.0625,1478545214.275
   -0.1875,   -0.1875,    0.0000,1478545214.306
    0.3750,   -0.1875,    0.0625,1478545214.319
    0.2500,   -0.1875,   -0.0625,1478545214.343
    0.4375,   -0.1250,   -0.1250,1478545214.358
   -0.0625,   -0.2500,   -0.2500,1478545214.387
    0.1875,    0.0000,   -0.0625,1478545214.396
    0.0625,    0.1250,    0.1250,1478545214.419
   -0.5000,   -0.1250,    0.0000,1478545214.439
   -0.5625,   -0.1875,   -0.1875,1478545214.456
   -0.1250,   -0.2500,    0.0000,1478545214.479
    0.0625,   -0.0625,    0.1875,1478545214.499
   -0.0625,   -0.0625,    0.1250,1478545214.539
   -0.2500,   -0.2500,    0.1250,1478545214.541
   -0.6875,   -0.2500,    0.0000,1478545214.584
   -0.5000,   -0.3125,    0.0625,1478545214.586
    0.3750,   -0.2500,   -0.0625,1478545214.598
   -0.4375,   -0.3125,    0.1250,1478545214.619
   -0.2500,   -0.0625,    0.0000,1478545214.635
   -0.5000,    0.1250,    0.1250,1478545214.665
   -0.1250,    0.0625,   -0.0625,1478545214.680
   -0.3125,    0.1250,    0.0000,1478545214.695
   -0.5000,    0.4375,    0.0000,1478545214.718
   -0.3125,    0.4375,    0.1250,1478545214.740
   -0.1250,    0.3750,    0.0000,1478545214.756
   -0.8125,    0.1250,   -0.1250,1478545214.778
   -0.3750,   -0.3125,    0.1875,1478545214.816
    0.8125,   -0.1875,    0.1250,1478545214.838
   -0.1250,   -0.4375,   -0.1250,1478545214.863
    0.3125,   -0.5000,   -0.0625,1478545214.867
    1.0000,   -0.1875,    0.2500,1478545214.875
    0.9375,   -0.0625,    0.2500,1478545214.904
    0.3750,    0.0000,    0.3750,1478545214.921
    0.4375,    0.0625,    0.2500,1478545214.943
    0.6875,   -0.0625,    0.3125,1478545214.958
    0.6875,    0.1250,    0.6875,1478545214.987
    0.9375,    0.1250,    0.6875,1478545214.995
    0.1250,    0.1250,    0.3750,1478545215.018
    0.0625,    0.2500,    0.4375,1478545215.041
    0.3750,    0.1875,    0.4375,1478545215.055
    0.2500,    0.3750,    0.2500,1478545215.102
    0.5625,    0.5000,    0.0000,1478545215.107
    0.1250,    0.5625,    0.1875,1478545215.139
   -0.0625,    0.6250,    0.0625,1478545215.141
    0.0625,    0.5000,    0.1250,1478545215.161
   -0.1875,    0.5000,    0.2500,1478545215.183
    0.5000,    0.3750,    0.1875,1478545215.198
    0.2500,    0.2500,    0.0625,1478545215.220
    0.4375,    0.0000,   -0.1875,1478545215.249
    0.3750,   -0.1250,   -0.0625,1478545215.265
    0.8750,    0.0000,    0.1250,1478545215.280
    0.2500,   -0.1875,    0.0000,1478545215.309
   -0.3125,   -0.3125,   -0.1250,1478545215.318
    0.1250,   -0.1875,   -0.3125,1478545215.340
    0.5000,    0.1250,    0.0000,1478545215.369
    0.0625,    0.1250,    0.0000,1478545215.402
   -0.1250,    0.3125,    0.0000,1478545215.416
    0.1875,    0.2500,   -0.1250,1478545215.422
    0.0000,    0.3125,   -0.2500,1478545215.452
    1.4375,    0.5000,   -1.2500,1478545215.461
    2.0625,    1.2500,   -1.4375,1478545215.482
    2.0000,    2.5625,   -0.5625,1478545215.498
    2.8125,    3.8125,   -0.4375,1478545215.520
    1.3750,    5.2500,   -0.5000,1478545215.543
    0.6250,    6.1250,   -1.0625,1478545215.558
    0.9375,    6.6875,   -1.2500,1478545215.588
    2.1875,    6.5000,   -2.2500,1478545215.602
    0.2500,    5.7500,   -2.1875,1478545215.618
    2.8125,    5.1875,   -1.6875,1478545215.648
    0.4375,    4.4375,   -0.9375,1478545215.663
   -0.4375,    3.2500,   -0.9375,1478545215.693
   -0.2500,    3.9375,   -1.9375,1478545215.700
   -4.5000,    4.5000,   -1.3750,1478545215.739
  -12.6875,    4.0000,   -5.0000,1478545215.745
  -15.3750,    1.2500,   -5.8125,1478545215.767
   -0.8125,    0.0000,   -5.8125,1478545215.783
   26.8750,    4.7500,   -6.4375,1478545215.804
   39.5000,    9.0000,   -0.6250,1478545215.821
   50.5625,   10.0000,   -1.6250,1478545215.843
   36.8125,    1.1875,    5.8750,1478545215.865
   32.4375,   -8.6875,   45.0000,1478545215.880
  -18.5625,  -15.3125,   92.8125,1478545215.909
  -26.2500,  -21.4375,  101.7500,1478545215.926
   14.9375,  -28.4375,  125.8125,1478545215.978
   70.1875,  -30.2500,  162.5625,1478545215.978
  120.6875,  -28.8125,  183.6250,1478545215.984
  148.1250,  -16.3750,  204.4375,1478545216.001
  168.7500,   -1.0000,  217.8125,1478545216.023
  190.7500,   13.8750,  222.3750,1478545216.044
  199.5625,   26.8125,  226.7500,1478545216.061
  187.8750,   40.6250,  220.3750,1478545216.107
  155.0625,   61.8750,  215.6875,1478545216.112
  131.8750,   81.6250,  216.3750,1478545216.120
  142.5000,   93.0000,  222.6250,1478545216.143
  144.1875,   98.4375,  229.5625,1478545216.164
  147.5000,   99.6250,  218.8125,1478545216.180
  172.5000,  100.8750,  194.6875,1478545216.203
  179.5000,  107.1875,  170.8125,1478545216.224
  141.3125,  116.8750,  147.4375,1478545216.248
   88.5000,  121.0000,  121.8750,1478545216.263
   34.5625,  110.4375,  107.1250,1478545216.284
   18.3750,   94.6250,   93.7500,1478545216.300
   50.8125,   79.3750,   78.0000,1478545216.323
   74.3125,   69.9375,   61.8125,1478545216.344
   65.9375,   60.3750,   43.7500,1478545216.360
   35.5625,   50.3125,   34.8750,1478545216.383
    2.0000,   43.1875,   26.3125,1478545216.404
  -16.6250,   37.3750,   14.6875,1478545216.420
  -21.4375,   29.2500,    7.0000,1478545216.443
  -24.0625,   21.6250,   -0.3125,1478545216.464
  -18.8125,   17.2500,   -1.6250,1478545216.480
   -1.8125,   19.1875,    6.5625,1478545216.528
   31.4375,   21.1875,    9.3125,1478545216.528
   37.0000,   17.9375,   -1.1875,1478545216.540
    0.2500,   12.6250,  -12.3125,1478545216.563
  -30.6250,   12.2500,  -13.3125,1478545216.586
  -34.2500,    6.3750,  -12.7500,1478545216.600
   -8.7500,   -4.6250,  -18.5625,1478545216.623
   20.2500,   -7.0625,  -15.4375,1478545216.645
   21.2500,   -5.3750,  -10.9375,1478545216.660
    5.8750,   -5.6250,  -13.3125,1478545216.683
   -8.8125,   -5.6250,  -12.3125,1478545216.705
  -16.0000,   -6.5625,  -12.9375,1478545216.727
   -4.0625,   -7.2500,  -10.7500,1478545216.743
   16.6875,   -6.3750,   -7.3125,1478545216.765
   11.8750,   -6.5000,  -11.3750,1478545216.786
  -19.0000,   -7.9375,  -14.3125,1478545216.803
  -38.9375,  -13.1875,  -17.4375,1478545216.825
  -32.6250,  -14.6250,  -14.3750,1478545216.848
   -7.5625,  -13.0625,   -5.9375,1478545216.863
    9.5625,   -6.2500,    5.8125,1478545216.885
   10.7500,   -1.6250,    8.4375,1478545216.914
   -7.4375,   -1.3125,    4.6250,1478545216.923
  -25.3750,   -0.6875,    2.0000,1478545216.946
  -24.1250,   -1.5625,   -1.0625,1478545216.967
  -12.8125,   -1.6875,   -2.1875,1478545216.983
   -1.3125,   -1.8750,   -2.9375,1478545217.006
   -1.6250,   -4.2500,   -7.0625,1478545217.034
  -13.0625,  -12.5000,  -16.7500,1478545217.043
  -18.8750,  -20.5000,  -22.3750,1478545217.066
  -11.6250,  -22.9375,  -21.5625,1478545217.087
    3.9375,  -23.8750,  -19.3125,1478545217.094
   15.9375,  -20.6250,  -14.1250,1478545217.108
   12.7500,  -17.6875,  -11.1250,1478545217.131
  -12.5000,  -15.4375,  -11.8125,1478545217.153
  -45.2500,  -19.6875,  -16.7500,1478545217.168
  -66.6875,  -30.0000,  -21.7500,1478545217.191
  -66.6250,  -38.8750,  -23.9375,1478545217.213
  -69.4375,  -45.2500,  -29.2500,1478545217.228
  -74.1250,  -52.5000,  -42.8125,1478545217.251
  -87.5000,  -57.9375,  -59.5625,1478545217.273
 -126.6875,  -63.6250,  -75.1250,1478545217.288
 -161.9375,  -70.6875,  -95.1250,1478545217.314
 -188.1250,  -78.6875, -119.6250,1478545217.335
 -189.9375,  -84.1875, -137.2500,1478545217.356
 -183.1875,  -78.8125, -143.8125,1478545217.371
 -184.8125,  -69.6875, -151.5000,1478545217.393
 -192.7500,  -58.3750, -168.2500,1478545217.408
 -199.1875,  -46.4375, -191.8750,1478545217.431
 -199.9375,  -33.4375, -217.9375,1478545217.453
 -180.1250,  -12.0000, -239.0000,1478545217.469
 -156.3750,   11.4375, -252.6250,1478545217.508
 -118.2500,   27.2500, -261.9375,1478545217.515
  -41.3750,   35.9375, -268.8750,1478545217.528
   49.5625,   49.3125, -250.5625,1478545217.551
   99.9375,   48.3125, -205.8750,1478545217.593
  121.2500,   39.8125, -194.3125,1478545217.598
   61.3750,   22.5000, -174.6875,1478545217.668
  -52.8750,   11.0625, -137.2500,1478545217.668
 -130.2500,   16.4375, -131.1875,1478545217.668
  -98.4375,   22.1250, -117.5000,1478545217.687
  -43.0625,   16.8750,  -84.5000,1478545217.693
   13.3750,   11.5000,  -40.3750,1478545217.708
    8.4375,    5.6250,  -14.9375,1478545217.731
  -38.1875,   -2.2500,   -6.8750,1478545217.755
  -61.3125,   -6.1875,   -4.9375,1478545217.771
  -49.8125,   -3.6250,   -8.2500,1478545217.791
  -22.1250,    2.2500,   -9.8125,1478545217.816
  -19.2500,   12.9375,    3.9375,1478545217.829
  -14.2500,   19.8750,   -3.3750,1478545217.870
  -17.7500,   18.9375,  -11.4375,1478545217.875
  -27.5625,   15.8125,  -11.1250,1478545217.913
  -31.6875,    9.8750,  -18.6250,1478545217.915
  -26.8750,    2.8125,  -17.8750,1478545217.929
  -28.3750,   -0.3125,   -6.9375,1478545217.948
  -15.5625,   -5.0000,   -3.8125,1478545217.971
    8.8125,   -5.3750,    3.6250,1478545217.993
    9.1250,    3.1875,    9.9375,1478545218.008
   28.0000,   16.5625,    3.2500,1478545218.032
   28.0625,   26.6875,    6.5625,1478545218.049
    2.6875,   23.5000,   14.8125,1478545218.069
  -22.5625,    9.2500,    7.6875,1478545218.091
  -25.7500,   -6.7500,   -7.1875,1478545218.109
  -12.5625,  -11.8750,  -13.3750,1478545218.130
   13.7500,  -13.5625,  -10.5625,1478545218.151
   30.6250,  -14.5000,   -7.3750,1478545218.176
   33.3125,  -13.4375,   -7.6875,1478545218.191
   28.6250,   -9.8125,   -6.1875,1478545218.218
   17.1875,   -6.5000,   -5.1250,1478545218.229
    8.7500,   -4.4375,   -4.0000,1478545218.268
   -0.6250,   -3.5000,   -4.7500,1478545218.271
   -2.0625,   -2.0625,   -5.3125,1478545218.289
   -0.6250,   -2.2500,   -5.3125,1478545218.311
    1.1875,   -0.1875,   -5.2500,1478545218.331
    2.8125,    1.7500,   -4.2500,1478545218.349
    1.8750,    3.6250,   -3.4375,1478545218.370
    0.7500,    5.5625,   -3.7500,1478545218.391
   -1.3750,    7.0625,   -3.0000,1478545218.409
   -7.3125,    6.6875,   -2.7500,1478545218.430
   -8.3750,    5.6250,   -3.0625,1478545218.453
   -3.1250,    3.8750,   -2.9375,1478545218.468
    2.8125,    2.4375,   -2.4375,1478545218.491
    6.1250,    1.8750,   -2.6875,1478545218.511
    6.0625,    0.6875,   -3.1875,1478545218.529
    5.2500,   -0.1875,   -3.3750,1478545218.551
    1.6875,   -0.2500,   -2.5625,1478545218.571
    2.9375,   -0.2500,   -2.6250,1478545218.589
    0.8125,   -0.8125,   -1.8750,1478545218.611
    0.9375,   -0.0625,   -0.7500,1478545218.631
    3.1250,   -0.1875,    0.0000,1478545218.649
    1.7500,   -0.2500,   -0.3125,1478545218.671
    3.8125,   -0.1250,    0.0000,1478545218.698
   -1.2500,    0.1250,   -0.5000,1478545218.709
   -1.6875,    0.6875,   -0.8750,1478545218.731
    3.0000,    0.7500,   -0.6875,1478545218.751
    2.6250,    0.3750,   -1.4375,1478545218.776
    3.3750,   -0.2500,   -1.0625,1478545218.791
    4.6250,   -0.3750,   -1.0000,1478545218.861
    0.3750,   -0.1250,   -1.1875,1478545218.861
    1.8750,    0.5000,   -0.9375,1478545218.861
   -0.7500,    0.5625,   -1.3125,1478545218.872
   -3.5625,    1.2500,   -1.3750,1478545218.888
   -1.8750,    2.0000,   -1.1250,1478545218.910
    0.4375,    2.5000,    0.9375,1478545218.931
   -2.3125,    3.0625,    1.4375,1478545218.948
   -4.8750,    3.6875,   -0.0625,1478545218.978
   -6.3750,    3.3125,   -1.0000,1478545218.991
   -5.8125,    2.9375,   -1.1875,1478545219.008
   -4.1250,    3.5625,   -1.8750,1478545219.031
   -2.6875,    2.3125,   -1.6250,1478545219.053
   -2.4375,    2.1250,   -2.3125,1478545219.068
    3.3750,    1.4375,   -2.1250,1478545219.097
    7.4375,   -1.5000,    0.3750,1478545219.112
    1.8750,   -2.2500,    0.9375,1478545219.142
    5.1250,   -2.3750,    1.4375,1478545219.150
    7.1875,   -3.6250,    2.2500,1478545219.172
    7.1250,   -2.7500,    4.3125,1478545219.194
    4.6250,   -2.8125,    3.1250,1478545219.210
    1.9375,   -2.5000,    1.1875,1478545219.239
    2.1250,   -0.9375,   -0.6250,1478545219.255
    2.0625,    0.0000,   -2.3750,1478545219.270
    4.9375,    0.2500,   -2.0625,1478545219.291
    8.1875,    0.3750,   -1.8125,1478545219.308
    7.8750,    0.1875,   -1.5625,1478545219.331
    2.4375,   -0.0625,   -3.0000,1478545219.352
   -2.0625,   -0.0625,   -4.3125,1478545219.375
    0.5000,    0.1875,   -4.1875,1478545219.390
    6.0625,    0.6875,   -2.8125,1478545219.419
    6.5000,    0.8125,   -2.3750,1478545219.427
    2.6250,    0.9375,   -2.7500,1478545219.450
   -1.2500,    1.1875,   -2.3125,1478545219.473
    0.0000,    2.5625,   -1.8750,1478545219.488
   -1.2500,    3.7500,   -1.9375,1478545219.518
   -2.6875,    3.1875,   -2.8125,1478545219.533
   -1.6875,    2.2500,   -1.3125,1478545219.548
    2.3750,    1.1875,    0.8750,1478545219.578
    3.8125,   -0.3750,    2.3750,1478545219.593
    0.6875,   -1.7500,    3.6875,1478545219.608
   -0.4375,   -2.5000,    4.5625,1478545219.631
    0.8750,   -2.5000,    3.7500,1478545219.654
   -0.5000,   -2.0000,    2.4375,1478545219.667
   -1.0000,   -1.5625,    1.3125,1478545219.698
    1.1250,   -0.8750,    1.6875,1478545219.713
    3.2500,   -0.3750,    2.0000,1478545219.727
    1.6875,    0.5625,    1.3125,1478545219.751
   -3.5000,    1.2500,    0.1875,1478545219.773
   -6.5000,    1.5000,   -0.6250,1478545219.788
   -2.9375,    1.3750,   -0.4375,1478545219.811
   -0.8125,    0.6875,    0.1250,1478545219.834
   -1.1875,   -1.1250,    0.5000,1478545219.855
    0.0000,   -1.8125,    0.0625,1478545219.870
    3.7500,   -1.7500,    0.1250,1478545219.893
    1.3750,   -1.4375,   -0.5625,1478545219.907
   -2.5000,   -0.9375,   -1.5000,1478545219.931
   -2.1250,   -0.3750,   -1.8125,1478545219.953
   -1.7500,    0.3125,   -1.6250,1478545219.974
   -3.3125,    0.5625,   -2.1875,1478545219.990
   -3.2500,    0.6875,   -2.5000,1478545220.027
   -1.0625,    0.8125,   -1.9375,1478545220.034
   -0.6250,    0.7500,   -1.0625,1478545220.050
   -1.8750,    0.1250,   -0.5625,1478545220.073
   -2.6875,   -0.3125,    0.1250,1478545220.094
   -2.3750,   -0.2500,    0.5000,1478545220.118
   -2.0625,   -0.5000,    0.5625,1478545220.133
   -0.9375,   -0.7500,    0.1250,1478545220.162
    0.1250,   -0.8750,   -0.8125,1478545220.170
   -0.3750,   -0.8125,   -1.3750,1478545220.193
   -0.8125,   -1.3750,   -1.3750,1478545220.215
    1.0625,   -1.6250,   -1.1875,1478545220.230
    1.6875,   -2.0625,   -0.6250,1478545220.261
    0.7500,   -1.7500,   -0.6250,1478545220.274
    1.7500,   -1.0625,   -0.6250,1478545220.290
    0.6250,   -0.2500,   -1.0000,1478545220.313
   -2.2500,    0.0000,   -1.3750,1478545220.334
   -0.1875,    0.8750,   -1.6875,1478545220.351
    1.2500,    1.4375,   -1.6250,1478545220.373
   -1.5000,    1.6250,   -2.0000,1478545220.396
   -2.5000,    0.9375,   -1.6875,1478545220.410
   -1.5000,   -0.1250,   -1.3125,1478545220.446
    0.0000,   -0.9375,   -0.6875,1478545220.455
    0.5000,   -1.3750,   -0.1250,1478545220.469
    2.1875,   -1.5000,    0.2500,1478545220.493
    1.8750,   -1.2500,    0.0625,1478545220.539
    0.5000,   -0.0625,   -1.2500,1478545220.544
   -1.8750,    1.0625,   -1.6875,1478545220.553
    0.2500,    2.3125,   -1.2500,1478545220.583
    0.9375,    3.2500,   -0.9375,1478545220.590
   -1.9375,    3.1250,   -0.9375,1478545220.613
   -4.0000,    3.1875,   -1.1250,1478545220.636
   -3.3125,    3.3750,   -1.0000,1478545220.650
   -1.2500,    2.7500,    0.3125,1478545220.688
    1.2500,    1.8125,    1.7500,1478545220.695
    0.3125,    0.7500,    1.5000,1478545220.725
   -3.4375,   -0.8125,    1.0000,1478545220.733
   -3.1875,   -1.3750,    1.1875,1478545220.771
    1.5000,   -1.6250,    2.1250,1478545220.777
    4.8125,   -2.6250,    3.2500,1478545220.816
    3.6875,   -3.0625,    2.3125,1478545220.818
    1.5000,   -2.5000,    1.7500,1478545220.830
   -0.1875,   -0.9375,    1.7500,1478545220.860
    1.1250,    0.8750,    1.8125,1478545220.875
   -0.7500,    2.6250,    1.5625,1478545220.904
   -3.7500,    3.2500,    1.6875,1478545220.920
   -5.7500,    3.5625,    1.8125,1478545220.935
   -4.4375,    2.7500,    1.8750,1478545220.956
   -3.2500,    1.5625,    1.1875,1478545220.973
   -0.2500,    1.4375,    0.1875,1478545220.996
    1.6875,    1.6250,    0.2500,1478545221.016
    4.3750,    1.3750,    1.3750,1478545221.048
   -0.7500,    0.5625,    0.7500,1478545221.055
   -3.6250,   -0.3750,   -0.2500,1478545221.094
   -3.5625,    0.2500,    0.3750,1478545221.096
   -1.5625,   -0.2500,    1.1875,1478545221.116
   -1.1250,    0.3750,    1.6250,1478545221.138
   -0.3125,   -0.3750,    1.2500,1478545221.153
    1.3125,   -1.3750,    1.3125,1478545221.184
    0.8125,   -2.2500,    0.4375,1478545221.205
    0.5000,   -2.2500,   -0.1250,1478545221.213
    2.3750,   -0.8750,    1.0625,1478545221.243
    2.3125,   -0.2500,    0.4375,1478545221.257
   -4.7500,   -0.5000,    0.6875,1478545221.280
   -8.6250,   -1.0625,   -0.3750,1478545221.295
   -5.4375,   -0.6875,   -0.2500,1478545221.325
   -0.3125,   -1.0625,    0.6875,1478545221.333
    2.4375,   -0.5000,    1.3750,1478545221.372
   -0.2500,   -1.0625,    1.5625,1478545221.378
   -6.0000,   -1.4375,   -0.0625,1478545221.393
   -6.6250,   -1.5625,    0.0000,1478545221.415
   -4.2500,   -0.3750,    0.3125,1478545221.438
   -1.1875,   -0.3125,   -0.3125,1478545221.460
   -3.1250,   -0.2500,    0.5000,1478545221.476
    0.0625,    0.1250,   -0.3750,1478545221.498
    2.4375,    1.3750,    0.7500,1478545221.520
    0.3750,    0.8125,    0.5000,1478545221.535
   -1.8750,    1.0000,    0.5000,1478545221.558
   -2.6875,    0.1875,    0.8125,1478545221.572
   -1.5000,   -1.0625,    0.0000,1478545221.595
    1.4375,   -1.0000,   -0.3750,1478545221.618
    1.0625,   -0.7500,   -0.7500,1478545221.632
   -0.3750,    0.4375,   -0.8750,1478545221.655
   -2.8125,    0.6250,   -1.0000,1478545221.678
   -4.1875,    0.6875,   -2.3125,1478545221.692
   -3.6250,    1.4375,   -3.1250,1478545221.716
   -1.8125,    3.6875,   -3.6250,1478545221.738
   -2.8750,    3.1250,   -3.7500,1478545221.788
   -0.7500,    0.3750,   -1.6875,1478545221.789
    3.6250,   -0.1875,    0.1250,1478545221.798
   -0.5000,   -1.9375,    0.3750,1478545221.812
   -6.0000,   -3.6250,   -1.2500,1478545221.835
   -3.1875,   -4.0000,   -1.5625,1478545221.858
    4.6875,   -3.9375,   -1.0625,1478545221.879
    9.4375,   -2.5625,   -0.2500,1478545221.895
    6.2500,   -0.7500,   -0.8125,1478545221.918
   -0.4375,    0.1250,   -0.9375,1478545221.939
   -5.5000,    0.8750,   -0.1875,1478545221.955
   -4.5625,    1.2500,   -0.5625,1478545221.978
   -2.1875,    1.0625,   -1.3125,1478545221.999
    1.5000,    1.0625,   -1.0625,1478545222.016
    4.8750,    1.2500,    0.1250,1478545222.038
    4.8750,    0.8750,    0.4375,1478545222.060
    0.1250,    0.3125,    0.9375,1478545222.075
   -2.6250,    0.7500,    1.3125,1478545222.104
   -2.5000,    0.6875,    2.0000,1478545222.119
   -1.0000,    0.8125,    3.1250,1478545222.136
   -0.6875,    0.6875,    3.5625,1478545222.158
   -0.5625,    0.4375,    4.1250,1478545222.179
   -1.9375,    0.3125,    3.8750,1478545222.196
   -2.3750,   -0.3750,    4.1250,1478545222.218
    0.1875,   -1.0625,    4.5625,1478545222.239
    1.8125,   -1.5625,    6.1875,1478545222.255
    1.1250,   -1.7500,    5.4375,1478545222.278
   -2.4375,   -1.6875,    4.9375,1478545222.308
   -2.5625,   -1.9375,    5.2500,1478545222.322
    0.6875,   -2.9375,    6.3750,1478545222.338
    1.7500,   -3.8125,    6.1875,1478545222.360
    0.9375,   -4.1250,    5.4375,1478545222.383
   -0.3125,   -3.9375,    3.4375,1478545222.398
    5.0000,   -3.4375,    2.8125,1478545222.426
   13.8125,   -1.6875,    3.8750,1478545222.435
   26.3125,    0.8750,    4.5625,1478545222.471
   18.8750,    3.0000,    4.7500,1478545222.480
   -3.6875,    3.0625,   -0.0625,1478545222.501
  -18.0000,    3.0625,   -1.5000,1478545222.508
  -13.6250,    3.6875,   -2.1250,1478545222.525
   -4.1875,    2.9375,   -2.5625,1478545222.546
    2.1250,    1.2500,   -1.7500,1478545222.563
    2.1875,   -0.5625,   -2.5625,1478545222.586
    4.1250,   -3.2500,   -3.1250,1478545222.614
   -3.0000,   -5.4375,   -2.3125,1478545222.629
   -6.0000,   -5.8125,   -4.4375,1478545222.643
    4.1875,   -5.5625,   -3.2500,1478545222.666
    4.7500,   -4.8750,   -2.6875,1478545222.682
    0.1250,   -3.9375,   -3.9375,1478545222.707
   -3.9375,   -4.2500,   -4.2500,1478545222.726
   -3.7500,   -3.6250,   -2.4375,1478545222.748
    1.7500,   -3.3125,   -2.2500,1478545222.763
    5.3125,   -3.0625,   -2.6875,1478545222.787
    3.8750,   -1.9375,   -2.4375,1478545222.803
    0.7500,   -1.4375,   -2.6875,1478545222.824
    0.4375,   -1.3125,   -3.0000,1478545222.846
    0.0000,    0.3750,   -2.2500,1478545222.864
    0.5000,    0.3125,   -0.8750,1478545222.902
   -1.4375,    0.0625,   -0.3125,1478545222.909
   -4.7500,    0.0000,   -0.3750,1478545222.922
   -2.7500,   -0.4375,   -0.1875,1478545222.943
   -1.1875,   -0.5625,    0.3750,1478545222.966
    1.0625,   -0.3125,    0.5625,1478545222.982
    1.6875,   -1.8125,    0.6250,1478545223.003
   -0.7500,   -2.6250,    0.4375,1478545223.029
    1.3750,   -2.1250,    0.3750,1478545223.042
    3.8125,   -2.0000,    0.3125,1478545223.063
   -0.1875,   -0.8125,    0.8125,1478545223.086
   -4.0000,   -0.7500,    0.2500,1478545223.102
   -0.6250,   -0.4375,   -0.3125,1478545223.124
   -0.6250,   -0.6875,    0.3125,1478545223.146
  -12.8125,   -0.3750,   -1.3750,1478545223.168
  -15.1875,   -0.7500,   -1.5000,1478545223.186
   -1.5000,   -1.0625,    0.2500,1478545223.213
    6.2500,    0.9375,    0.8125,1478545223.224
   -9.1875,    4.5625,    2.5625,1478545223.243
  -14.4375,    2.8750,    1.5625,1478545223.266
   -7.5000,    0.9375,   -1.6875,1478545223.284
    1.0625,    0.5625,    0.0625,1478545223.305
   13.7500,    1.6875,    1.0625,1478545223.326
   15.1875,    1.8125,    1.9375,1478545223.344
   12.8750,    1.2500,    2.0000,1478545223.363
   12.6875,    1.3750,    3.4375,1478545223.386
   24.0000,    0.8750,    1.2500,1478545223.404
   29.8750,   -0.6250,    0.3750,1478545223.424
