 -0.157715,  0.276855,  0.916016,1478626638.276
 -0.164063,  0.274902,  0.903320,1478626638.294
 -0.175293,  0.237305,  0.898438,1478626638.314
 -0.179688,  0.183594,  0.925781,1478626638.339
 -0.161133,  0.187012,  0.933594,1478626638.354
 -0.154785,  0.205566,  0.933105,1478626638.374
 -0.145996,  0.233887,  0.911621,1478626638.396
 -0.152832,  0.216797,  0.912598,1478626638.444
 -0.160156,  0.215820,  0.914063,1478626638.445
 -0.153809,  0.233398,  0.900879,1478626638.457
 -0.155273,  0.245605,  0.918945,1478626638.472
 -0.155273,  0.238281,  0.914551,1478626638.496
 -0.156738,  0.235352,  0.914063,1478626638.517
 -0.151367,  0.247559,  0.910645,1478626638.554
 -0.152344,  0.229492,  0.921875,1478626638.564
 -0.152344,  0.214355,  0.931641,1478626638.577
 -0.147949,  0.213379,  0.925781,1478626638.592
 -0.146484,  0.209473,  0.916992,1478626638.614
 -0.150391,  0.212891,  0.916504,1478626638.637
 -0.155762,  0.225586,  0.918457,1478626638.652
 -0.158691,  0.228516,  0.914551,1478626638.674
 -0.154297,  0.216309,  0.927734,1478626638.697
 -0.153809,  0.223145,  0.920898,1478626638.712
 -0.155273,  0.231934,  0.915527,1478626638.734
 -0.142090,  0.256348,  0.911621,1478626638.757
 -0.156738,  0.249023,  0.916016,1478626638.772
 -0.145996,  0.217285,  0.924805,1478626638.794
 -0.137695,  0.177734,  0.920410,1478626638.817
 -0.137207,  0.191406,  0.937500,1478626638.832
 -0.152832,  0.233398,  0.911133,1478626638.854
 -0.162109,  0.256836,  0.908203,1478626638.870
 -0.163086,  0.246094,  0.902832,1478626638.892
 -0.159180,  0.249512,  0.904297,1478626638.914
 -0.162109,  0.234375,  0.908203,1478626638.930
 -0.146484,  0.240234,  0.914551,1478626638.952
 -0.143555,  0.230957,  0.920898,1478626638.974
 -0.136719,  0.225586,  0.927246,1478626638.990
 -0.130371,  0.215820,  0.930176,1478626639.012
 -0.127930,  0.210449,  0.931641,1478626639.034
 -0.124023,  0.206543,  0.921875,1478626639.050
 -0.131836,  0.218750,  0.922852,1478626639.072
 -0.142578,  0.232422,  0.924805,1478626639.094
 -0.143066,  0.234863,  0.915039,1478626639.110
 -0.142578,  0.242676,  0.915527,1478626639.132
 -0.139648,  0.236816,  0.919922,1478626639.154
 -0.129883,  0.229004,  0.913574,1478626639.178
 -0.128418,  0.225586,  0.923340,1478626639.199
 -0.132813,  0.232910,  0.916992,1478626639.222
 -0.129883,  0.235840,  0.915527,1478626639.230
 -0.130859,  0.233398,  0.920410,1478626639.251
 -0.133789,  0.242188,  0.921387,1478626639.275
 -0.138672,  0.243164,  0.914551,1478626639.290
 -0.132324,  0.242188,  0.912109,1478626639.311
 -0.129395,  0.241699,  0.914551,1478626639.334
 -0.129883,  0.236328,  0.912598,1478626639.350
 -0.126953,  0.243652,  0.920410,1478626639.372
 -0.122559,  0.215332,  0.929688,1478626639.394
 -0.118164,  0.203125,  0.930176,1478626639.410
 -0.123047,  0.234375,  0.916016,1478626639.431
 -0.137695,  0.245117,  0.921875,1478626639.454
 -0.138184,  0.234863,  0.923340,1478626639.470
 -0.122070,  0.244629,  0.915039,1478626639.500
 -0.125977,  0.266602,  0.916016,1478626639.514
 -0.128418,  0.257324,  0.931641,1478626639.530
 -0.129395,  0.230469,  0.901855,1478626639.552
 -0.125977,  0.229980,  0.920410,1478626639.575
 -0.131348,  0.232910,  0.902344,1478626639.590
 -0.130859,  0.232422,  0.912598,1478626639.613
 -0.132324,  0.242676,  0.916016,1478626639.636
 -0.129395,  0.241699,  0.910156,1478626639.650
 -0.119629,  0.254883,  0.912109,1478626639.673
 -0.121582,  0.248047,  0.909180,1478626639.696
 -0.122070,  0.249023,  0.915039,1478626639.710
 -0.120605,  0.252441,  0.920898,1478626639.733
 -0.126953,  0.244629,  0.914551,1478626639.756
 -0.128418,  0.244141,  0.914063,1478626639.779
 -0.122070,  0.249512,  0.919434,1478626639.793
 -0.123535,  0.244141,  0.917969,1478626639.816
 -0.125000,  0.250000,  0.929199,1478626639.838
 -0.130371,  0.224121,  0.921875,1478626639.852
 -0.115234,  0.240723,  0.919434,1478626639.883
 -0.118652,  0.249023,  0.913574,1478626639.898
 -0.116211,  0.251953,  0.914063,1478626639.912
 -0.116211,  0.249023,  0.907227,1478626639.935
 -0.120605,  0.265625,  0.901855,1478626639.957
 -0.129395,  0.276367,  0.908203,1478626639.972
 -0.135254,  0.251953,  0.912109,1478626639.995
 -0.127441,  0.242676,  0.910156,1478626640.017
 -0.138184,  0.244629,  0.915039,1478626640.033
 -0.126953,  0.242676,  0.925781,1478626640.055
 -0.120117,  0.241211,  0.923340,1478626640.077
 -0.124512,  0.232910,  0.932617,1478626640.092
 -0.121582,  0.241699,  0.924805,1478626640.116
 -0.119141,  0.245117,  0.915039,1478626640.145
 -0.117676,  0.241211,  0.913574,1478626640.161
 -0.125000,  0.242676,  0.919922,1478626640.175
 -0.123047,  0.249023,  0.919922,1478626640.197
 -0.125977,  0.258789,  0.918457,1478626640.213
 -0.130371,  0.232422,  0.914551,1478626640.235
 -0.138184,  1.059570, -1.459473,1478626643.710
  0.392090,  2.406738,  0.035645,1478626643.717
  0.520020,  3.339355, -0.115234,1478626643.724
  0.637207,  2.968262, -0.907715,1478626643.746
  0.043457,  1.344727, -0.237305,1478626643.769
  0.349121, -0.954590,  0.563965,1478626643.786
  0.752441, -2.550781,  0.209961,1478626643.807
  0.427734, -0.481445, -1.620117,1478626643.837
  0.352051,  1.791016, -1.102051,1478626643.845
  0.657227,  3.292480, -0.094238,1478626643.866
  0.260742,  2.479492, -1.183594,1478626643.888
  0.447754,  1.439941, -0.886230,1478626643.905
  0.007324,  1.144531, -0.293945,1478626643.926
  0.195801, -1.015625,  0.705566,1478626643.948
  1.063965, -2.790527,  0.041016,1478626643.963
  0.165527, -1.069336, -1.754395,1478626643.986
  0.128418,  1.572754, -2.334961,1478626644.008
  1.119629,  3.504395, -0.642578,1478626644.023
  0.601074,  1.679199, -1.073730,1478626644.054
  0.229492,  1.722168, -0.675293,1478626644.068
  0.330566,  1.462402, -1.530273,1478626644.085
 -0.111328,  0.295410, -0.045898,1478626644.115
  0.818359, -2.973633,  0.171875,1478626644.137
  0.553223, -1.803223, -0.965332,1478626644.152
  0.238281,  0.960938, -2.487305,1478626644.173
  0.651855,  2.545898, -0.883789,1478626644.196
  0.631836,  2.259277, -1.032715,1478626644.218
  0.313965,  1.959961, -0.732422,1478626644.234
  0.286133,  1.306152, -1.539551,1478626644.257
  0.137207,  0.504395, -1.541016,1478626644.279
  0.613770, -1.556152,  0.208984,1478626644.310
  0.539551, -1.848145, -0.207031,1478626644.325
  0.096680, -0.568848, -2.036133,1478626644.327
  0.539063,  1.340820, -2.073242,1478626644.347
  0.832031,  2.698242, -1.870117,1478626644.370
  0.242188,  1.262695, -0.301270,1478626644.392
  0.297852,  2.254395, -0.964844,1478626644.415
  0.603027,  1.202637, -1.824707,1478626644.429
  0.643555, -0.255859, -2.523926,1478626644.452
  0.123535, -0.659180,  0.319824,1478626644.475
  0.494141, -1.704102,  0.918945,1478626644.497
 -0.117676, -1.985352, -1.738281,1478626644.520
  0.436523, -0.107422, -3.608887,1478626644.542
  0.837402,  2.655762, -3.046875,1478626644.563
  0.842773,  1.897461, -0.607910,1478626644.586
  0.575195,  1.471680, -0.990723,1478626644.587
  0.309570,  0.522949, -1.399414,1478626644.608
  0.140137,  0.727539, -1.230957,1478626644.631
  0.111816,  1.155762, -1.358398,1478626644.653
  0.237305,  0.414551, -2.275391,1478626644.676
  0.417480, -2.339355,  0.486816,1478626644.692
  1.033203, -0.633789,  0.343262,1478626644.714
  0.467285, -0.875000, -1.063965,1478626644.743
  0.291016,  1.041016, -2.164063,1478626644.768
  0.480957,  0.786621, -1.780762,1478626644.768
  0.839844,  1.148926, -1.138672,1478626644.797
  0.932617,  1.095215, -1.239258,1478626644.820
  0.687500,  1.618164, -1.436035,1478626644.849
  0.047363,  1.386230, -0.790039,1478626644.873
  0.027344,  0.412598, -1.141602,1478626644.874
  0.599609,  0.352539, -1.228027,1478626644.894
  0.485840,  0.820313, -1.127441,1478626644.925
  0.018555,  0.203125, -1.419434,1478626644.931
  0.605957, -0.590820, -0.845703,1478626644.979
  0.770020, -0.745605, -0.490234,1478626644.991
  0.540039,  0.213867, -1.405273,1478626645.001
  0.500488,  0.601563, -1.053711,1478626645.030
  0.317383,  0.268555, -1.454590,1478626645.031
  0.402344,  0.683105, -1.250000,1478626645.047
  0.459473,  0.686035, -1.108887,1478626645.067
  0.743164,  1.286133, -1.703613,1478626645.090
  0.571289,  1.535156, -1.439453,1478626645.111
  0.147461,  0.994141, -1.472168,1478626645.126
  0.176270,  0.238770, -1.523438,1478626645.150
  0.415039, -0.217285, -1.370605,1478626645.172
  0.640137,  0.214355, -1.074707,1478626645.203
  0.492676, -0.412598, -0.502441,1478626645.233
  0.640137, -0.801758, -0.608887,1478626645.245
  0.586426, -0.488770, -1.177734,1478626645.260
  0.486328,  0.154297, -1.533203,1478626645.284
  0.434570,  0.796387, -1.590820,1478626645.299
  0.600098,  1.238281, -1.408691,1478626645.323
  0.735352,  1.109375, -1.081055,1478626645.324
  0.470703,  0.550293, -0.898926,1478626645.345
  0.286621,  0.004883, -0.898926,1478626645.367
  0.263672, -0.326660, -0.975586,1478626645.390
  0.346191, -0.309082, -1.060547,1478626645.411
  0.375000, -0.186035, -1.043945,1478626645.427
  0.444824, -0.057129, -1.006348,1478626645.450
  0.519043,  0.082520, -1.004883,1478626645.466
  0.522461,  0.166016, -0.967285,1478626645.487
  0.482422,  0.114746, -0.926270,1478626645.502
  0.476563, -0.038086, -0.975098,1478626645.524
  0.458984, -0.061523, -1.014648,1478626645.545
  0.447754,  0.101563, -0.958496,1478626645.561
  0.483887,  0.246094, -1.004395,1478626645.582
  0.497559,  0.463379, -0.930664,1478626645.605
  0.570313,  0.611816, -1.113281,1478626645.622
  0.619141,  0.630859, -1.180664,1478626645.643
  0.591309,  0.442383, -1.099609,1478626645.665
  0.642578,  0.250488, -0.931641,1478626645.682
  0.727051,  0.041504, -0.810547,1478626645.703
  0.695801,  0.019531, -0.687988,1478626645.725
  0.632324,  0.218262, -0.638672,1478626645.742
  0.594238,  0.446777, -0.591309,1478626645.763
  0.577637,  0.642090, -0.564453,1478626645.785
  0.579590,  0.918457, -0.607422,1478626645.802
  0.552734,  0.803223, -0.682129,1478626645.824
  0.552734,  0.474121, -0.534180,1478626645.845
  0.579590,  0.402344, -0.329102,1478626645.861
  0.591797,  0.505371, -0.295410,1478626645.884
  0.609375,  0.811523, -0.392090,1478626645.905
  0.524414,  1.056641, -0.456055,1478626645.921
  0.468262,  1.106934, -0.464355,1478626645.944
  0.439941,  0.951660, -0.447754,1478626645.973
  0.395996,  0.777344, -0.351074,1478626645.981
  0.353027,  0.692383, -0.303711,1478626646.004
  0.305664,  0.686035, -0.226074,1478626646.025
  0.325684,  0.780762, -0.320801,1478626646.041
  0.328125,  1.178711, -0.339844,1478626646.080
  0.849121, -0.190918, -0.840332,1478626646.109
  0.379395,  0.318848, -0.543945,1478626646.112
  0.536621,  0.978516,  0.201660,1478626646.124
  0.461914,  0.576172,  0.000977,1478626646.145
  0.500000,  0.765137, -0.139160,1478626646.162
  0.417969,  0.882324,  0.110840,1478626646.184
  0.342285,  0.768555,  0.222168,1478626646.205
  0.486328,  0.645020,  0.062988,1478626646.222
  0.553223,  0.690918,  0.249023,1478626646.244
  0.330566,  0.872559,  0.218750,1478626646.282
  0.165527,  0.901367,  0.583008,1478626646.284
  0.482422,  1.033203,  0.435059,1478626646.313
  0.653809,  0.819824,  0.263672,1478626646.335
  0.647461,  0.598633,  0.371582,1478626646.357
  0.592285,  0.824219,  0.303711,1478626646.364
  0.322266,  0.979980,  0.417480,1478626646.385
  0.408691,  0.408203,  0.673828,1478626646.401
  0.639160,  0.361816,  0.787598,1478626646.423
  0.350586,  0.431152,  0.793457,1478626646.446
  0.476563,  0.295898,  0.763184,1478626646.468
  0.489746,  0.354492,  0.627441,1478626646.483
  0.751953,  0.240723,  0.686035,1478626646.506
  0.473145,  0.247070,  0.793457,1478626646.521
  0.280762,  0.202148,  0.876953,1478626646.543
  0.403809,  0.283691,  0.706055,1478626646.565
  0.427734,  0.223145,  0.797363,1478626646.581
  0.525391,  0.053223,  0.728516,1478626646.611
  0.568848,  0.103516,  0.780273,1478626646.634
  0.412109,  0.037598,  0.858887,1478626646.640
  0.549805,  0.325195,  0.809570,1478626646.663
  0.483887,  0.241211,  0.789063,1478626646.688
  0.325684,  0.358887,  0.752930,1478626646.701
  0.411133,  0.327148,  0.746582,1478626646.723
  0.494629,  0.456543,  0.729004,1478626646.746
  0.285156,  0.234375,  0.833008,1478626646.761
  0.487793,  0.298340,  0.680176,1478626646.783
  0.411621,  0.578613,  0.653809,1478626646.806
  0.489258,  0.620605,  0.636719,1478626646.821
  0.608398,  0.580566,  0.641602,1478626646.843
  0.579590,  0.424316,  0.601074,1478626646.866
  0.577148,  0.432617,  0.652344,1478626646.888
  0.584473,  0.561523,  0.221191,1478626646.911
  0.621582,  0.541016,  0.817383,1478626646.926
  0.593262,  0.557617,  0.607910,1478626646.942
  0.564941,  0.416992,  0.735840,1478626646.963
  0.648438, -0.090332,  0.823242,1478626646.986
  0.220215,  0.721191,  0.862305,1478626647.001
  0.426270,  0.293945,  0.741699,1478626647.023
 -1.226074, -0.156250,  1.357910,1478626647.037
  0.488281,  0.367676,  1.051758,1478626647.061
  0.777344,  0.222656,  0.820801,1478626647.084
  0.727539, -0.321289,  0.986816,1478626647.105
  0.409668, -0.083008,  0.876953,1478626647.129
  0.369141,  0.020996,  0.834961,1478626647.152
  0.395020, -0.255859,  0.848145,1478626647.173
  0.321289, -0.160645,  0.820801,1478626647.190
  0.270508, -0.095703,  0.834473,1478626647.211
  0.342773, -0.155762,  0.863770,1478626647.219
  0.406250, -0.117676,  0.868164,1478626647.242
  0.352539, -0.102539,  0.855957,1478626647.263
  0.255371, -0.049316,  0.862305,1478626647.279
  0.373047, -0.142578,  0.886719,1478626647.302
  0.435059, -0.094238,  0.894531,1478626647.323
  0.399414, -0.123535,  0.902344,1478626647.339
  0.830566, -0.201172,  0.813965,1478626647.370
  0.191895,  0.201172,  0.847656,1478626647.385
  0.525391, -0.028320,  0.895508,1478626647.407
  0.459473,  0.029297,  0.929199,1478626647.428
  0.406250, -0.003418,  0.884766,1478626647.452
  0.405762, -0.027344,  0.860352,1478626647.475
  0.407227, -0.103516,  0.864258,1478626647.481
  0.344238, -0.084961,  0.838379,1478626647.504
  0.239746,  0.197754,  0.832031,1478626647.519
  0.359863,  0.010742,  0.892090,1478626647.542
  0.369629,  0.134766,  0.879395,1478626647.564
  0.449219,  0.056641,  0.854980,1478626647.587
  0.454590,  0.047363,  0.898926,1478626647.601
  0.464355,  0.099121,  0.857910,1478626647.623
  0.479004,  0.101074,  0.764648,1478626647.639
  0.555664,  0.037109,  0.873535,1478626647.660
  0.440430,  0.322266,  0.868164,1478626647.683
  0.527344,  0.209473,  0.900879,1478626647.699
  0.384766,  0.390625,  0.907715,1478626647.721
  0.458008,  0.178223,  0.922363,1478626647.744
  0.461914,  0.177734,  0.880859,1478626647.759
  0.444824,  0.238770,  0.814453,1478626647.780
  0.507324,  0.209473,  0.785156,1478626647.803
  0.596191,  0.113770,  0.722656,1478626647.819
  0.625488, -0.041992,  0.683105,1478626647.840
  0.597656,  0.088379,  0.726563,1478626647.863
  0.631836,  0.143066,  0.796875,1478626647.879
  0.580566,  0.040039,  0.790527,1478626647.900
  0.535645,  0.065918,  0.741699,1478626647.923
  0.569824,  0.014648,  0.602539,1478626647.939
  0.671875,  0.024902,  0.672852,1478626647.960
  0.733398,  0.179688,  0.644531,1478626647.983
  0.850586, -0.003418,  0.562500,1478626647.999
  0.781738, -0.534180,  0.546387,1478626648.028
  0.680176, -0.203125,  0.547852,1478626648.052
  0.833984,  0.055664,  0.448242,1478626648.074
  0.856445, -0.087891,  0.577637,1478626648.080
  0.576172,  0.025879,  0.766602,1478626648.103
  0.626465,  0.311035,  0.730469,1478626648.119
  0.751465,  0.115234,  0.745605,1478626648.140
  0.654785,  0.066406,  0.754883,1478626648.164
  0.674805, -0.002441,  0.763672,1478626648.179
  0.699707,  0.050293,  0.701172,1478626648.200
  0.720215, -0.014648,  0.682129,1478626648.223
  0.696777, -0.066895,  0.673828,1478626648.239
  0.676758, -0.023438,  0.681641,1478626648.260
  0.630371, -0.011230,  0.719727,1478626648.283
  0.583008,  0.068359,  0.730957,1478626648.299
  0.603516,  0.077148,  0.740723,1478626648.328
  0.634277,  0.074219,  0.713379,1478626648.352
  0.656250,  0.005859,  0.712402,1478626648.366
  0.605469,  0.072754,  0.788574,1478626648.382
  0.597168, -0.001465,  0.950195,1478626648.405
  0.601563,  0.013672,  0.984375,1478626648.426
  0.690430,  0.057129,  0.827148,1478626648.442
  1.259277, -0.714355,  0.813477,1478626648.465
  0.742188,  0.197266,  0.097656,1478626648.485
  0.278320,  0.352539, -0.351074,1478626648.501
  0.375488,  0.780762,  0.585449,1478626648.525
  1.181641, -0.006836,  1.466797,1478626648.553
  0.647461,  0.304199,  0.788574,1478626648.561
  0.739258, -0.004395,  0.558105,1478626648.584
  0.624023, -0.025391,  0.577637,1478626648.606
  0.507813,  0.237305,  0.824219,1478626648.621
  0.565430,  0.331055,  0.934082,1478626648.644
  0.550781,  0.253906,  0.816406,1478626648.665
  0.633301,  0.194336,  0.676758,1478626648.681
  0.798828, -0.038086,  0.475098,1478626648.704
  0.859863, -0.297852,  0.411621,1478626648.727
  0.603516, -0.296387,  0.870117,1478626648.741
  0.651367,  0.065430,  1.278809,1478626648.764
  0.622070,  0.428223,  1.173828,1478626648.787
  0.588867,  0.148438,  0.541992,1478626648.802
  0.868652, -0.433105,  0.271973,1478626648.832
  0.848145, -0.347656,  0.375977,1478626648.855
  0.670898, -0.053711,  0.556641,1478626648.862
  0.633301,  0.005371,  0.550781,1478626648.884
  0.554688, -0.000977,  0.745117,1478626648.907
  0.609375,  0.143555,  0.958984,1478626648.921
  0.637207,  0.024414,  0.890625,1478626648.944
  0.673828, -0.018555,  0.654785,1478626648.967
  0.757813, -0.171387,  0.544434,1478626648.980
  0.744629, -0.222168,  0.606445,1478626649.003
  0.683594, -0.091797,  0.685059,1478626649.017
  0.682129,  0.015625,  0.761230,1478626649.049
  0.646973,  0.136230,  0.833984,1478626649.055
  0.677734,  0.272949,  0.727539,1478626649.077
  0.777832,  0.168945,  0.575195,1478626649.109
  0.669434,  0.457031,  0.408203,1478626649.115
  1.183105, -0.459961,  0.664551,1478626649.137
  0.716309, -0.566895,  1.254883,1478626649.161
  0.366699,  0.406738,  0.868164,1478626649.175
  0.474121,  0.279785,  1.004395,1478626649.197
  0.632813, -0.268066,  0.619629,1478626649.221
  0.765137, -0.304199,  0.483398,1478626649.235
  0.740723, -0.271484,  0.534668,1478626649.257
  0.687012, -0.260742,  0.617676,1478626649.280
  0.701172, -0.265137,  0.629395,1478626649.295
  0.687500, -0.228516,  0.659180,1478626649.318
  0.665527, -0.112793,  0.669434,1478626649.341
  0.695313, -0.135742,  0.738770,1478626649.355
  0.644531, -0.115234,  0.750488,1478626649.386
  0.613770, -0.055664,  0.789063,1478626649.409
  0.600586, -0.054688,  0.919922,1478626649.415
  0.652832, -0.003418,  0.993164,1478626649.438
  0.701660, -0.322266,  0.984375,1478626649.461
  0.815918, -0.537598,  0.883789,1478626649.475
  0.676270, -0.784180,  0.440918,1478626649.498
  0.814941, -0.670898,  0.146973,1478626649.521
  0.470703,  0.337891, -0.040039,1478626649.535
  0.593262,  0.428223,  0.658691,1478626649.558
  0.965332,  0.386719,  0.817383,1478626649.581
  0.601563,  0.342773,  0.761230,1478626649.603
  0.528809, -0.006348,  0.608398,1478626649.618
  0.700684, -0.100098,  0.814941,1478626649.641
  0.754395,  0.196777,  0.713867,1478626649.663
  0.681152,  0.200684,  0.711914,1478626649.686
  0.662109,  0.279785,  0.733887,1478626649.700
  0.798340,  0.122070,  0.798340,1478626649.715
  0.812500,  0.028320,  0.767090,1478626649.738
  0.842773, -0.168457,  0.731445,1478626649.760
  0.789551, -0.187988,  0.670410,1478626649.775
  0.675293, -0.093750,  0.620117,1478626649.798
  0.662598, -0.104492,  0.570801,1478626649.820
  0.691895, -0.201660,  0.527344,1478626649.835
  0.573242, -0.098145,  0.680176,1478626649.858
  0.468750, -0.019043,  1.125000,1478626649.881
  0.788086, -0.413574,  1.050293,1478626649.895
  0.926758, -0.587891,  0.625977,1478626649.918
  0.835938, -0.256836,  0.015137,1478626649.942
  0.274902,  0.740234, -0.530273,1478626649.963
  0.763672, -0.424805,  1.479492,1478626649.978
  0.366699,  0.294922,  1.182617,1478626650.001
  0.691406,  0.226074,  1.079102,1478626650.015
  0.796387,  0.647461,  0.875488,1478626650.038
  0.819824,  0.273926,  0.756348,1478626650.061
  0.687012, -0.428223,  0.528320,1478626650.075
  0.905762, -0.573730,  0.391113,1478626650.098
  0.665527, -0.509766,  0.347168,1478626650.121
  0.505371, -0.362793,  0.404785,1478626650.135
  0.501465, -0.120117,  0.540527,1478626650.158
  0.573242,  0.049316,  0.708984,1478626650.181
  0.627441,  0.119629,  1.208984,1478626650.195
  0.584961, -0.283691,  1.146484,1478626650.219
  0.751465, -0.653320,  0.407227,1478626650.242
  0.925293, -0.054688,  0.505859,1478626650.255
  0.248535,  1.421875, -0.262695,1478626650.277
  1.067383, -0.033203,  1.911133,1478626650.300
  0.125488,  0.167969,  1.250977,1478626650.315
  0.664551,  0.024414,  1.201660,1478626650.337
  0.823730,  0.156250,  0.688965,1478626650.360
  1.195801,  0.547852,  0.539551,1478626650.375
  0.874512, -0.160645,  0.465820,1478626650.399
  0.739258, -0.675781,  0.526367,1478626650.429
  0.617676, -0.634277,  0.472656,1478626650.435
  0.520508, -0.450195,  0.355957,1478626650.466
  0.604980, -0.356445,  0.338867,1478626650.497
  0.644043, -0.393066,  0.289063,1478626650.499
  0.662598, -0.422363,  0.363281,1478626650.520
  0.605469, -0.247070,  0.504395,1478626650.543
  0.605957,  0.114746,  1.164551,1478626650.558
  0.677246,  0.126953,  1.593750,1478626650.577
  0.588379, -0.471191,  1.082031,1478626650.600
  0.822754, -0.269043,  0.647949,1478626650.616
  0.294434,  2.153320, -0.969238,1478626650.637
  0.516602,  0.894531,  1.368652,1478626650.660
  1.203125, -1.201660,  1.119141,1478626650.676
  0.141602, -0.344727,  0.778809,1478626650.697
  1.122070,  0.080566,  0.484375,1478626650.720
  1.212402,  0.135742,  0.520508,1478626650.736
  0.847168,  0.182129,  0.609863,1478626650.774
  0.517090, -0.047363,  0.550781,1478626650.780
  0.616211, -0.552246,  0.539063,1478626650.798
  0.581543, -0.516113,  0.459473,1478626650.820
  0.573730, -0.401367,  0.295898,1478626650.840
  0.684570, -0.444824,  0.288086,1478626650.862
  0.734375, -0.449219,  0.313965,1478626650.885
  0.687012, -0.339844,  0.373047,1478626650.901
  0.583496, -0.136230,  0.629395,1478626650.917
  0.545410,  0.321289,  1.442871,1478626650.938
  0.575684,  0.424316,  1.723145,1478626650.961
  0.575684,  0.153809,  1.308594,1478626650.976
  0.768066,  0.411133, -0.352539,1478626650.999
  0.271484,  2.734863,  0.377441,1478626651.022
  1.554688, -1.281738,  1.672363,1478626651.036
  0.322266,  0.216797,  0.977539,1478626651.057
  0.864746, -0.245605,  0.773438,1478626651.081
  0.928711,  0.487793,  0.739746,1478626651.096
  0.819336,  0.328125,  0.849609,1478626651.117
  0.520508, -0.032227,  0.697754,1478626651.134
  0.655273, -0.556641,  0.585449,1478626651.165
  0.609375, -0.414063,  0.356934,1478626651.186
  0.668457, -0.420898,  0.322754,1478626651.194
  0.668945, -0.445801,  0.333496,1478626651.216
  0.701660, -0.475586,  0.262207,1478626651.237
  0.704590, -0.457031,  0.235840,1478626651.255
  0.632813, -0.374023,  0.326172,1478626651.276
  0.583984, -0.083984,  0.532227,1478626651.297
  0.569824,  0.327148,  1.242188,1478626651.314
  0.616211,  0.208496,  1.822266,1478626651.351
  0.933594,  0.062012,  1.203125,1478626651.365
  0.829102,  0.814453, -0.020996,1478626651.374
 -0.142090,  2.362305,  0.231445,1478626651.396
  1.000488, -0.845703,  1.975098,1478626651.418
  0.762207,  0.618652,  1.228027,1478626651.434
  0.862793, -0.088379,  0.771484,1478626651.457
  0.771973,  0.265137,  0.627930,1478626651.478
  0.763672, -0.037109,  0.591309,1478626651.494
  0.774414, -0.503906,  0.556152,1478626651.516
  0.626465, -0.445801,  0.419434,1478626651.539
  0.548828, -0.397461,  0.336914,1478626651.552
  0.591797, -0.418457,  0.360840,1478626651.576
  0.668457, -0.438965,  0.303711,1478626651.606
  0.697266, -0.493652,  0.238770,1478626651.629
  0.687988, -0.493652,  0.221680,1478626651.635
  0.640137, -0.376953,  0.320313,1478626651.658
  0.589355, -0.139160,  0.774414,1478626651.673
  0.683105,  0.121094,  1.535156,1478626651.696
  0.660156, -0.007813,  1.470215,1478626651.718
  0.588379, -0.221191,  0.835449,1478626651.733
  0.265137,  1.242676, -0.323242,1478626651.755
  0.097168,  3.513184,  0.465332,1478626651.778
  1.526855, -1.457031,  1.994141,1478626651.793
  0.149902,  0.020508,  0.965820,1478626651.815
  0.801758, -0.352051,  0.867188,1478626651.838
  1.238770,  0.393555,  0.559570,1478626651.853
  1.029297,  0.200195,  0.739746,1478626651.884
  0.581543,  0.298828,  0.438477,1478626651.905
  0.444336, -0.010742,  0.349609,1478626651.914
  0.688477, -0.441406,  0.320313,1478626651.937
  0.743652, -0.745605,  0.298340,1478626651.958
  0.595703, -0.853027,  0.299805,1478626651.975
  0.536133, -0.486816,  0.274902,1478626651.997
  0.528320, -0.319824,  0.426758,1478626652.018
  0.625977, -0.075195,  0.963379,1478626652.035
  0.669434,  0.225586,  1.476074,1478626652.056
  0.736816,  0.265625,  1.271973,1478626652.080
  0.460938,  0.729004,  0.812988,1478626652.095
  0.394043,  1.161133, -0.233887,1478626652.116
  0.107422,  2.019531,  0.137207,1478626652.138
  1.616211,  0.031738,  1.311523,1478626652.161
  0.500000, -0.536133,  1.267578,1478626652.183
  0.645020, -0.053223,  0.665527,1478626652.198
  1.024902,  0.139160,  0.572266,1478626652.214
  0.909180,  0.191895,  0.526367,1478626652.236
  0.688965, -0.157227,  0.496094,1478626652.258
  0.547363, -0.362793,  0.476563,1478626652.274
  0.535156, -0.478027,  0.427246,1478626652.295
  0.536621, -0.436523,  0.472656,1478626652.319
  0.668457,  0.113770,  0.509766,1478626652.340
  0.381348,  0.016602,  0.524414,1478626652.356
  0.937500,  0.002441,  0.338379,1478626652.388
  0.389648, -0.837402,  0.558105,1478626652.393
  0.215820, -0.620117,  0.697266,1478626652.416
  0.448730, -0.594727,  0.735840,1478626652.441
  0.343262, -0.400879,  0.828125,1478626652.461
  0.280762, -0.298340,  0.842773,1478626652.476
  0.265625, -0.336426,  0.845703,1478626652.500
  0.348633, -0.299316,  0.754883,1478626652.512
  0.369141, -0.193848,  0.714355,1478626652.536
  0.249023,  0.233887,  0.809082,1478626652.558
  0.005371,  0.417480,  0.855469,1478626652.572
 -0.003418,  0.133789,  1.096191,1478626652.596
  0.139160, -0.213379,  1.311035,1478626652.618
  0.105957, -0.338379,  1.487305,1478626652.632
  0.097656, -0.387207,  1.293457,1478626652.656
  0.180176, -0.421387,  0.979004,1478626652.678
  0.243164, -0.266602,  0.908691,1478626652.692
  0.080078, -0.029785,  1.002441,1478626652.715
 -0.064453,  0.035645,  1.108398,1478626652.739
 -0.015625, -0.105957,  1.003906,1478626652.752
  0.083008, -0.294922,  0.860840,1478626652.775
  0.111328, -0.432617,  0.928223,1478626652.798
 -0.013672, -0.364746,  1.019531,1478626652.812
 -0.120605, -0.312988,  1.082031,1478626652.843
 -0.076660, -0.421387,  1.032227,1478626652.858
 -0.015625, -0.474609,  0.948730,1478626652.872
 -0.022949, -0.451172,  0.930664,1478626652.895
 -0.041504, -0.342773,  0.873535,1478626652.918
 -0.054688, -0.334473,  0.847656,1478626652.934
 -0.073242, -0.395020,  0.868652,1478626652.956
 -0.095703, -0.403320,  0.878906,1478626652.978
 -0.175781, -0.341309,  0.873047,1478626652.994
 -0.212402, -0.242676,  0.903809,1478626653.017
 -0.169922, -0.297363,  0.929688,1478626653.031
 -0.159668, -0.337891,  0.982910,1478626653.054
 -0.173340, -0.415527,  1.000488,1478626653.076
 -0.132324, -0.411133,  0.921387,1478626653.091
 -0.064941, -0.458496,  0.908691,1478626653.114
 -0.052734, -0.394531,  0.914063,1478626653.137
 -0.062988, -0.318848,  0.906738,1478626653.158
 -0.059570, -0.319336,  0.901855,1478626653.174
 -0.052734, -0.362305,  0.869141,1478626653.197
 -0.054199, -0.420898,  0.898438,1478626653.219
 -0.082031, -0.413086,  0.917969,1478626653.242
 -0.081543, -0.383789,  0.899414,1478626653.273
 -0.081543, -0.360352,  0.911133,1478626653.294
 -0.101074, -0.360352,  0.889160,1478626653.297
 -0.101563, -0.350098,  0.897461,1478626653.318
 -0.080078, -0.309082,  0.908203,1478626653.370
 -0.078613, -0.320801,  0.894043,1478626653.372
 -0.057617, -0.421875,  0.904297,1478626653.394
 -0.075684, -0.440918,  0.899902,1478626653.400
 -0.092285, -0.432129,  0.894531,1478626653.414
 -0.081055, -0.404785,  0.885742,1478626653.436
 -0.083984, -0.364746,  0.885254,1478626653.467
 -0.091309, -0.361816,  0.898926,1478626653.489
 -0.094727, -0.373047,  0.904297,1478626653.497
 -0.087402, -0.389648,  0.892090,1478626653.520
 -0.085449, -0.380859,  0.886230,1478626653.534
 -0.094727, -0.374023,  0.874512,1478626653.556
 -0.099609, -0.379883,  0.884766,1478626653.580
 -0.094727, -0.392090,  0.895508,1478626653.594
 -0.094238, -0.401855,  0.904785,1478626653.616
 -0.093750, -0.388672,  0.907227,1478626653.640
 -0.087891, -0.378906,  0.900879,1478626653.654
 -0.092773, -0.356445,  0.902832,1478626653.676
 -0.089844, -0.348633,  0.897949,1478626653.700
 -0.084473, -0.354492,  0.897461,1478626653.714
 -0.089844, -0.356934,  0.891113,1478626653.743
 -0.091309, -0.366211,  0.890625,1478626653.760
  0.899902,  0.213379,  0.199219,1478626832.307
  0.918945,  0.228027,  0.183594,1478626832.322
  0.898926,  0.155762,  0.030273,1478626832.338
  1.028320, -0.209961, -0.196289,1478626832.369
  1.294434, -0.692383, -0.227539,1478626832.382
  1.280273,  0.185547, -0.220215,1478626832.398
  0.954102,  0.590332,  0.651367,1478626832.420
 -0.313965,  0.713379,  1.474121,1478626832.442
 -1.870117,  2.167969,  0.922363,1478626832.457
 -0.492188,  1.952637,  0.130371,1478626832.481
  2.162598,  0.280273, -0.099609,1478626832.502
  3.195801, -0.164551,  0.284668,1478626832.518
  0.827148,  0.141602,  0.607422,1478626832.540
 -0.635742,  0.779297,  0.754395,1478626832.562
 -0.097168,  1.019043,  0.489746,1478626832.577
  1.046875,  0.646484,  0.237305,1478626832.600
  1.718262,  0.500000,  0.141113,1478626832.622
  1.142578,  0.288086,  0.395020,1478626832.645
  0.236328,  0.442871,  0.516113,1478626832.661
  0.089355,  0.821289,  0.518555,1478626832.682
  0.397461,  0.967285,  0.451172,1478626832.697
  0.630859,  0.778320,  0.338867,1478626832.720
  0.723633,  0.667969,  0.315918,1478626832.751
  0.640137,  0.769043,  0.391113,1478626832.757
  0.378418,  0.778809,  0.407715,1478626832.780
  0.476563,  0.607422,  0.325684,1478626832.802
  0.950684,  0.532227,  0.225586,1478626832.817
  1.045410,  0.440918,  0.211426,1478626832.840
  0.851563,  0.396484,  0.334473,1478626832.862
  0.630859,  0.592285,  0.343750,1478626832.877
  0.480957,  0.733398,  0.407715,1478626832.900
  0.473633,  0.786621,  0.387207,1478626832.922
  0.510742,  0.734863,  0.419434,1478626832.937
  0.433105,  0.812500,  0.437012,1478626832.960
  0.787109,  0.783691,  0.230469,1478626832.982
  0.753418,  0.260254,  0.360352,1478626832.997
  0.581055, -0.023926,  0.298340,1478626833.028
  0.291504,  0.562012,  0.402344,1478626833.042
  0.705566,  0.379395, -0.010742,1478626833.057
  1.155273,  0.646973,  0.148926,1478626833.080
  0.931152,  0.475098,  0.484375,1478626833.102
  0.685059,  0.417480,  0.282227,1478626833.117
  0.874512,  0.595703,  0.323730,1478626833.140
  0.581055,  0.932617,  0.444336,1478626833.154
  0.169922,  1.235352,  0.426270,1478626833.179
  0.286621,  1.050781,  0.250000,1478626833.201
  0.555664,  0.751953,  0.183594,1478626833.222
  0.687012,  0.428223,  0.242676,1478626833.237
  0.727539,  0.535156,  0.237305,1478626833.260
  0.525879,  0.720215,  0.320801,1478626833.274
  0.385742,  0.824219,  0.396484,1478626833.305
  0.402832,  0.756836,  0.419434,1478626833.319
  0.524414,  0.743652,  0.401367,1478626833.334
  0.606934,  0.749512,  0.361328,1478626833.356
  0.666504,  0.718262,  0.334961,1478626833.379
  0.682129,  0.632324,  0.345703,1478626833.394
  0.700195,  0.588379,  0.345703,1478626833.416
  0.682129,  0.612793,  0.368652,1478626833.439
  0.579102,  0.629395,  0.403320,1478626833.457
  0.528320,  0.691406,  0.423828,1478626833.478
  0.525391,  0.720703,  0.409668,1478626833.499
  0.507324,  0.716309,  0.407715,1478626833.514
  0.494141,  0.713867,  0.402832,1478626833.536
  0.508301,  0.723633,  0.385742,1478626833.559
  0.527832,  0.699219,  0.378418,1478626833.582
  0.574219,  0.675781,  0.345703,1478626833.597
  0.598633,  0.642090,  0.377930,1478626833.619
  0.609863,  0.587891,  0.396973,1478626833.642
  0.561035,  0.604004,  0.447266,1478626833.657
  0.547852,  0.664063,  0.457520,1478626833.679
  0.545898,  0.687500,  0.471680,1478626833.696
  0.519531,  0.697266,  0.500488,1478626833.717
  0.538086,  0.665039,  0.526855,1478626833.739
  0.548340,  0.667969,  0.536621,1478626833.757
  0.556152,  0.660645,  0.547852,1478626833.777
  0.551270,  0.674805,  0.546875,1478626833.799
  0.565430,  0.650391,  0.528809,1478626833.815
  0.557129,  0.651367,  0.529785,1478626833.837
  0.562012,  0.645020,  0.521484,1478626833.860
  0.557617,  0.660645,  0.535156,1478626833.875
  0.536621,  0.623535,  0.555664,1478626833.896
  0.496094,  0.629395,  0.602539,1478626833.919
  0.433594,  0.597168,  0.614258,1478626833.935
  0.381348,  0.560547,  0.639160,1478626833.956
  0.332031,  0.515625,  0.630371,1478626833.979
  0.314453,  0.461426,  0.619629,1478626833.995
  0.407227,  0.355957,  0.644531,1478626834.016
  0.460938,  0.293945,  0.638672,1478626834.039
  0.486328,  0.336914,  0.657227,1478626834.055
  0.470215,  0.414551,  0.622559,1478626834.076
  0.498535,  0.438477,  0.583008,1478626834.100
  0.520996,  0.415527,  0.586914,1478626834.116
  0.470703,  0.436523,  0.600098,1478626834.140
  0.400391,  0.489746,  0.606934,1478626834.159
  0.398438,  0.578613,  0.598145,1478626834.182
  0.470703,  0.593750,  0.638672,1478626834.199
  0.383789,  0.542969,  0.729004,1478626834.236
  0.286133,  0.441895,  0.940430,1478626834.238
  0.187012,  0.516602,  1.013672,1478626834.273
  0.188477,  0.629883,  0.929688,1478626834.288
  0.340820,  0.765137,  0.792480,1478626834.296
  0.568359,  0.694336,  0.707520,1478626834.328
  0.732422,  0.548340,  0.642090,1478626834.339
  0.736328,  0.381836,  0.591797,1478626834.363
  0.690430,  0.330078,  0.576172,1478626834.376
  0.700684,  0.302734,  0.539063,1478626834.400
  0.759766,  0.303223,  0.504883,1478626834.417
  0.779785,  0.236816,  0.554199,1478626834.438
  0.734863,  0.224609,  0.610352,1478626834.459
  0.647461,  0.282227,  0.660156,1478626834.475
  0.576172,  0.374023,  0.679688,1478626834.496
  0.533691,  0.479004,  0.704590,1478626834.519
  0.472656,  0.492188,  0.707031,1478626834.535
  0.436035,  0.505371,  0.718262,1478626834.556
  0.443359,  0.508789,  0.709473,1478626834.587
  0.452148,  0.520996,  0.710938,1478626834.595
  0.489746,  0.442383,  0.666504,1478626834.616
  0.528320,  0.395020,  0.703613,1478626834.639
  0.540039,  0.399414,  0.725098,1478626834.656
  0.537109,  0.480469,  0.759766,1478626834.678
  0.536133,  0.495605,  0.772461,1478626834.699
  0.535645,  0.460938,  0.800293,1478626834.716
  0.505371,  0.377930,  0.854980,1478626834.738
  0.474121,  0.369141,  0.872070,1478626834.759
  0.431152,  0.354492,  0.875977,1478626834.775
  0.416992,  0.365723,  0.865234,1478626834.798
  0.426758,  0.353027,  0.811523,1478626834.819
  0.448730,  0.310059,  0.750488,1478626834.835
  0.424805,  0.300781,  0.740234,1478626834.865
  0.355469,  0.331055,  0.735352,1478626834.880
  0.279297,  0.325195,  0.722656,1478626834.895
  0.222656,  0.259277,  0.730469,1478626834.918
  0.255371,  0.189941,  0.661133,1478626834.939
  0.342285,  0.224121,  0.682617,1478626834.955
  0.376953,  0.274414,  0.711426,1478626834.977
  0.347168,  0.257813,  0.688477,1478626835.000
  0.343750,  0.084473,  0.682129,1478626835.015
  0.403809, -0.124023,  0.751953,1478626835.037
  0.387695, -0.309082,  0.796387,1478626835.059
  0.376953, -0.465332,  0.888184,1478626835.090
  0.326660, -0.577637,  0.967773,1478626835.097
  0.336426, -0.535156,  0.986328,1478626835.119
  0.389160, -0.445801,  0.968750,1478626835.142
  0.396484, -0.337402,  0.948242,1478626835.157
  0.356934, -0.398438,  0.963379,1478626835.180
  0.347656, -0.464844,  0.944336,1478626835.195
  0.421387, -0.411621,  0.965820,1478626835.217
  0.458496, -0.331055,  0.891602,1478626835.239
  0.434570, -0.312988,  0.843750,1478626835.255
  0.403809, -0.342773,  0.879883,1478626835.277
  0.362305, -0.447266,  0.927246,1478626835.300
  0.337891, -0.538086,  1.001465,1478626835.315
  0.306152, -0.697266,  1.036133,1478626835.337
  0.193359, -0.861816,  1.042969,1478626835.360
  0.094727, -1.000000,  1.150391,1478626835.375
  0.077148, -0.919434,  1.168945,1478626835.397
  0.176758, -0.796387,  1.106934,1478626835.429
  0.265137, -0.718750,  1.066895,1478626835.436
  0.308594, -0.651367,  1.070313,1478626835.457
  0.375000, -0.492676,  1.049316,1478626835.480
  0.404297, -0.360840,  0.989746,1478626835.495
  0.455078, -0.267578,  0.892090,1478626835.525
  0.504395, -0.172852,  0.792480,1478626835.533
  0.538086, -0.182129,  0.713379,1478626835.555
  0.554688, -0.210449,  0.609863,1478626835.577
  0.611328, -0.259766,  0.522461,1478626835.601
  0.661621, -0.228027,  0.480957,1478626835.614
  0.643555, -0.159668,  0.386719,1478626835.637
  0.662109, -0.173340,  0.285156,1478626835.653
  0.737793, -0.273438,  0.284180,1478626835.675
  0.763672, -0.379395,  0.297363,1478626835.699
  0.734863, -0.417969,  0.270508,1478626835.713
  0.687500, -0.400391,  0.245117,1478626835.736
  0.632813, -0.453125,  0.212891,1478626835.757
  0.598145, -0.562500,  0.167969,1478626835.773
  0.600098, -0.630371,  0.170410,1478626835.804
  0.526855, -0.706543,  0.169922,1478626835.817
  0.519531, -0.671387,  0.162598,1478626835.833
  0.446777, -0.732910,  0.209961,1478626835.857
  0.511719, -0.768555,  0.206543,1478626835.877
  0.544922, -0.798340,  0.223145,1478626835.893
  0.551270, -0.728027,  0.267578,1478626835.916
  0.543457, -0.785156,  0.240234,1478626835.937
  0.517090, -0.876953,  0.291992,1478626835.953
  0.556641, -0.910645,  0.279785,1478626835.976
  0.577637, -0.889648,  0.242188,1478626835.997
  0.605469, -0.801758,  0.145020,1478626836.013
  0.641602, -0.815918,  0.052246,1478626836.036
  0.623047, -0.823730,  0.051270,1478626836.057
  0.572266, -0.744141,  0.054688,1478626836.080
  0.545410, -0.789063,  0.108398,1478626836.096
  0.549316, -0.883789,  0.123047,1478626836.117
  0.576172, -0.901855,  0.121582,1478626836.133
  0.591797, -0.780762,  0.124512,1478626836.156
  0.593750, -0.711426,  0.090820,1478626836.177
  0.574707, -0.748535,  0.106934,1478626836.193
  0.503418, -0.849121,  0.130371,1478626836.216
  0.488281, -0.898926,  0.084473,1478626836.237
  0.459473, -0.946289,  0.138672,1478626836.253
  0.471680, -0.926270,  0.157715,1478626836.276
  0.517578, -0.881836,  0.173828,1478626836.297
  0.532715, -0.851563,  0.164063,1478626836.313
  0.523926, -0.860840,  0.138184,1478626836.336
  0.533691, -0.883301,  0.115723,1478626836.359
  0.536621, -0.875000,  0.137207,1478626836.373
  0.546875, -0.860352,  0.117188,1478626836.396
  0.574707, -0.894043,  0.124512,1478626836.417
  0.508301, -0.924316,  0.128906,1478626836.433
  0.469238, -0.893555,  0.146973,1478626836.456
  0.510742, -0.811523,  0.155762,1478626836.477
  0.557129, -0.746582,  0.163086,1478626836.493
  0.554199, -0.733887,  0.181152,1478626836.516
  0.581543, -0.807129,  0.192871,1478626836.537
  0.616699, -0.864746,  0.174805,1478626836.553
  0.557129, -0.887207,  0.126465,1478626836.575
  0.517090, -0.879395,  0.128906,1478626836.597
  0.501953, -0.850586,  0.142090,1478626836.620
  0.473145, -0.844727,  0.209473,1478626836.635
  0.424316, -0.822754,  0.223145,1478626836.657
  0.394043, -0.802734,  0.189941,1478626836.673
  0.344238, -0.781250,  0.151855,1478626836.695
  0.345215, -0.798340,  0.112793,1478626836.719
  0.436035, -0.834473,  0.100586,1478626836.733
  0.484863, -0.894531,  0.120605,1478626836.756
  0.536621, -0.951172,  0.141113,1478626836.779
  0.617676, -0.989258,  0.176270,1478626836.793
  0.660645, -0.995605,  0.207031,1478626836.824
  0.640625, -0.949707,  0.235840,1478626836.839
  0.577637, -0.926758,  0.255859,1478626836.853
  0.533691, -0.912109,  0.254883,1478626836.875
  0.496094, -0.887207,  0.258301,1478626836.899
  0.428711, -0.876465,  0.243164,1478626836.913
  0.397949, -0.875000,  0.225098,1478626836.935
  0.395508, -0.856445,  0.200684,1478626836.958
  0.395996, -0.824219,  0.181641,1478626836.973
  0.430176, -0.818848,  0.184570,1478626836.995
  0.470215, -0.823730,  0.186523,1478626837.018
  0.483887, -0.818359,  0.209961,1478626837.033
  0.490723, -0.848145,  0.205566,1478626837.063
  0.483398, -0.847168,  0.204590,1478626837.086
  0.469727, -0.835938,  0.187500,1478626837.093
  0.485352, -0.859375,  0.174805,1478626837.115
  0.491211, -0.866211,  0.172852,1478626837.138
  0.479980, -0.872070,  0.197754,1478626837.153
  0.461914, -0.885254,  0.216797,1478626837.175
  0.474121, -0.907227,  0.227539,1478626837.198
  0.484375, -0.907227,  0.229004,1478626837.219
  0.482910, -0.883789,  0.230469,1478626837.235
  0.482910, -0.867188,  0.243652,1478626837.259
  0.490723, -0.882324,  0.247070,1478626837.280
  0.490723, -0.906250,  0.248535,1478626837.295
  0.473145, -0.886719,  0.237305,1478626837.319
  0.470215, -0.877930,  0.235840,1478626837.342
  0.474609, -0.873047,  0.241211,1478626837.364
  0.473633, -0.892090,  0.239258,1478626837.379
  0.477539, -0.897461,  0.244141,1478626837.400
  0.493164, -0.883301,  0.250488,1478626837.415
  0.508301, -0.875977,  0.257324,1478626837.439
  0.488281, -0.856934,  0.257324,1478626837.467
  0.461914, -0.836426,  0.260254,1478626837.475
  0.449219, -0.840332,  0.265137,1478626837.498
  0.442871, -0.837402,  0.254883,1478626837.520
  0.441406, -0.824707,  0.254883,1478626837.535
  0.443359, -0.834961,  0.246094,1478626837.549
  0.454590, -0.863770,  0.240723,1478626837.571
  0.467773, -0.863281,  0.247559,1478626837.595
  0.478027, -0.859375,  0.250000,1478626837.617
  0.472656, -0.862793,  0.255371,1478626837.631
  0.478027, -0.868652,  0.253906,1478626837.655
  0.468262, -0.865234,  0.254395,1478626837.669
  0.462402, -0.871094,  0.256348,1478626837.692
  0.447754, -0.875000,  0.261230,1478626837.714
  0.466309, -0.896973,  0.262207,1478626837.729
  0.509766, -0.942383,  0.239258,1478626837.751
  0.544434, -0.968750,  0.233887,1478626837.775
  0.540527, -0.941895,  0.230957,1478626837.789
  0.507324, -0.891602,  0.247559,1478626837.812
  0.474121, -0.870117,  0.259277,1478626837.835
  0.438965, -0.861816,  0.264160,1478626837.849
  0.412598, -0.844238,  0.257324,1478626837.872
  0.421875, -0.812012,  0.246094,1478626837.895
  0.425293, -0.793945,  0.238281,1478626837.917
  0.431641, -0.793945,  0.247559,1478626837.931
  0.437500, -0.806641,  0.242188,1478626837.955
  0.431152, -0.812988,  0.229980,1478626837.969
  0.426270, -0.810547,  0.225098,1478626837.991
  0.428223, -0.822754,  0.220215,1478626838.024
  0.424805, -0.840820,  0.221680,1478626838.029
  0.425781, -0.854004,  0.224121,1478626838.052
  0.433594, -0.906738,  0.227539,1478626838.075
  0.444824, -0.956543,  0.218262,1478626838.089
  0.500000, -0.976074,  0.210449,1478626838.114
  0.529785, -0.954102,  0.220215,1478626838.135
  0.501465, -0.952148,  0.226074,1478626838.149
  0.481934, -1.003418,  0.259766,1478626838.171
  0.485840, -0.981445,  0.274902,1478626838.196
  0.521973, -0.916992,  0.260254,1478626838.209
  0.524902, -0.879395,  0.258789,1478626838.231
  0.461914, -0.868652,  0.247070,1478626838.254
  0.424316, -0.838867,  0.219727,1478626838.269
  0.416016, -0.812012,  0.212402,1478626838.292
  0.447754, -0.805176,  0.203613,1478626838.315
  0.444824, -0.788574,  0.209473,1478626838.329
  0.419434, -0.778320,  0.198730,1478626838.352
  0.416992, -0.788574,  0.197266,1478626838.375
  0.406738, -0.810547,  0.202148,1478626838.389
  0.392090, -0.826660,  0.210938,1478626838.412
  0.393066, -0.841309,  0.217285,1478626838.435
  0.411133, -0.852539,  0.226074,1478626838.449
  0.431152, -0.876465,  0.219727,1478626838.473
  0.435547, -0.897461,  0.231445,1478626838.495
  0.411621, -0.914551,  0.227051,1478626838.509
  0.482910, -0.946289,  0.229980,1478626838.531
  0.553711, -0.954102,  0.254395,1478626838.554
  0.558594, -0.961914,  0.256836,1478626838.577
  0.517578, -0.959473,  0.255371,1478626838.592
  0.516113, -0.949219,  0.258789,1478626838.615
  0.531250, -0.925293,  0.259766,1478626838.629
  0.530273, -0.900879,  0.263672,1478626838.651
  0.503906, -0.890137,  0.265137,1478626838.674
  0.457520, -0.878418,  0.265625,1478626838.689
  0.416992, -0.858887,  0.265625,1478626838.711
  0.401855, -0.838379,  0.250488,1478626838.734
  0.407227, -0.817871,  0.253418,1478626838.752
  0.407227, -0.798340,  0.255859,1478626838.771
  0.416016, -0.788574,  0.252930,1478626838.788
  0.424805, -0.788086,  0.251465,1478626838.809
  0.427246, -0.787109,  0.258301,1478626838.832
  0.426270, -0.788086,  0.248047,1478626838.856
  0.430664, -0.811035,  0.244141,1478626838.869
  0.438477, -0.848145,  0.237305,1478626838.892
  0.447754, -0.849121,  0.230957,1478626838.914
  0.450684, -0.858887,  0.241211,1478626838.929
  0.436035, -0.895996,  0.251465,1478626838.952
  0.461914, -0.937500,  0.270020,1478626838.968
  0.516113, -0.956055,  0.277344,1478626838.990
  0.547363, -0.959473,  0.286621,1478626839.011
  0.534180, -0.953613,  0.283691,1478626839.029
  0.508301, -0.951660,  0.291504,1478626839.049
  0.501953, -0.919922,  0.303711,1478626839.071
  0.494629, -0.891602,  0.292480,1478626839.088
  0.473145, -0.863770,  0.280273,1478626839.109
  0.443359, -0.844727,  0.268066,1478626839.133
  0.421387, -0.840820,  0.262207,1478626839.148
  0.412598, -0.822754,  0.244141,1478626839.169
  0.408203, -0.804688,  0.241699,1478626839.191
  0.419922, -0.783691,  0.245605,1478626839.208
  0.429199, -0.793945,  0.261230,1478626839.229
  0.428711, -0.798340,  0.261719,1478626839.251
  0.437500, -0.795410,  0.263184,1478626839.268
  0.447754, -0.800781,  0.263672,1478626839.289
  0.447754, -0.821777,  0.265625,1478626839.311
  0.425293, -0.856934,  0.265625,1478626839.329
  0.426270, -0.889160,  0.265625,1478626839.349
  0.438477, -0.898926,  0.268066,1478626839.372
  0.446777, -0.901367,  0.277344,1478626839.389
  0.453613, -0.920898,  0.286133,1478626839.412
  0.503906, -0.924316,  0.298340,1478626839.432
  0.554688, -0.912109,  0.312988,1478626839.448
  0.571289, -0.906738,  0.318359,1478626839.470
  0.530273, -0.901367,  0.306152,1478626839.492
  0.483398, -0.873047,  0.301270,1478626839.508
  0.461426, -0.862305,  0.288574,1478626839.530
  0.451660, -0.869629,  0.293457,1478626839.551
  0.431152, -0.863770,  0.279785,1478626839.568
  0.427734, -0.838379,  0.279297,1478626839.590
  0.427734, -0.816406,  0.289063,1478626839.611
  0.432129, -0.806641,  0.290527,1478626839.628
  0.436523, -0.826172,  0.309570,1478626839.650
  0.425781, -0.832520,  0.300293,1478626839.672
  0.418945, -0.821777,  0.304199,1478626839.689
  0.416504, -0.812988,  0.295410,1478626839.710
  0.416504, -0.805664,  0.290039,1478626839.731
  0.408203, -0.818359,  0.299805,1478626839.748
  0.434082, -0.823730,  0.312500,1478626839.770
  0.445313, -0.845703,  0.313965,1478626839.791
  0.414063, -0.882813,  0.305664,1478626839.808
  0.391113, -0.901855,  0.288086,1478626839.838
  0.467285, -0.918457,  0.259766,1478626839.860
  0.527344, -0.953125,  0.245605,1478626839.868
  0.527832, -0.967773,  0.241699,1478626839.890
  0.530273, -0.939941,  0.238770,1478626839.912
  0.553223, -0.925781,  0.255371,1478626839.928
  0.550781, -0.917969,  0.269531,1478626839.950
  0.515625, -0.893555,  0.262207,1478626839.971
  0.484375, -0.893066,  0.251465,1478626839.988
  0.477539, -0.883301,  0.224609,1478626840.010
  0.478027, -0.854492,  0.224121,1478626840.032
  0.462402, -0.825684,  0.231445,1478626840.048
  0.432129, -0.807617,  0.247559,1478626840.070
  0.424316, -0.791504,  0.254395,1478626840.092
  0.412109, -0.770020,  0.264648,1478626840.107
  0.393066, -0.761719,  0.270020,1478626840.137
  0.397461, -0.689941,  0.250488,1478626840.152
  0.375488, -0.632324,  0.282227,1478626840.167
  0.415527, -0.602051,  0.314453,1478626840.189
  0.349121, -0.655762,  0.379883,1478626840.212
  0.294434, -0.638184,  0.438965,1478626840.227
  0.354004, -0.534180,  0.403320,1478626840.249
  0.450684, -0.397461,  0.380859,1478626840.272
  0.595215, -0.292480,  0.304688,1478626840.287
  0.696777, -0.218750,  0.359863,1478626840.311
  0.901855, -0.424316,  0.424316,1478626840.332
  1.010742, -0.814453,  0.470703,1478626840.347
  0.930664, -0.805176,  0.395020,1478626840.369
  0.902344, -0.574707,  0.281738,1478626840.394
  1.088867, -0.342285,  0.241211,1478626840.415
  1.212891, -0.383789,  0.294922,1478626840.431
  1.201172, -0.359375,  0.309082,1478626840.452
  1.166504, -0.170898,  0.302734,1478626840.467
  1.078613,  0.026367,  0.356445,1478626840.490
  1.023926,  0.131836,  0.376953,1478626840.520
  0.989746,  0.246094,  0.333984,1478626840.529
  0.911133,  0.231445,  0.329102,1478626840.550
  0.861328,  0.356934,  0.326660,1478626840.572
  0.967773,  0.294922,  0.297363,1478626840.588
  1.065918,  0.154297,  0.369629,1478626840.610
  1.021973,  0.086914,  0.424805,1478626840.632
  1.059570,  0.177734,  0.390625,1478626840.648
  1.036621,  0.271484,  0.376953,1478626840.669
  1.043945,  0.348633,  0.321777,1478626840.693
  1.002441,  0.322266,  0.280762,1478626840.708
  0.929199,  0.253906,  0.201660,1478626840.730
  0.867188,  0.119141,  0.169434,1478626840.752
  0.855469,  0.067383,  0.161133,1478626840.768
  0.871582,  0.078613,  0.163086,1478626840.790
  0.870605,  0.087402,  0.126465,1478626840.812
  0.915527,  0.062012,  0.101563,1478626840.828
  0.936523,  0.112305,  0.101563,1478626840.849
  0.968262,  0.131348,  0.130371,1478626840.872
  0.942383,  0.101563,  0.154785,1478626840.888
  0.961426,  0.091797,  0.172852,1478626840.910
  1.011719,  0.126953,  0.193359,1478626840.933
  1.046875,  0.134766,  0.229980,1478626840.949
  1.051270,  0.123535,  0.263184,1478626840.970
  1.030762,  0.100586,  0.302734,1478626840.992
  1.007813,  0.074707,  0.304688,1478626841.009
  0.974609,  0.098145,  0.296387,1478626841.030
  0.947754,  0.119629,  0.267090,1478626841.045
  0.927734,  0.138184,  0.270020,1478626841.068
  0.914063,  0.184570,  0.263184,1478626841.090
  0.927246,  0.189453,  0.256348,1478626841.106
  0.933105,  0.171387,  0.250000,1478626841.128
  0.927246,  0.151367,  0.269043,1478626841.150
  0.945801,  0.167480,  0.302246,1478626841.165
  0.958984,  0.208984,  0.314941,1478626841.188
  0.981445,  0.240723,  0.313965,1478626841.210
  0.968262,  0.237305,  0.341309,1478626841.225
  0.947266,  0.234375,  0.388184,1478626841.248
  0.906250,  0.251465,  0.432617,1478626841.269
  0.850586,  0.257324,  0.458496,1478626841.285
  0.812988,  0.244141,  0.478027,1478626841.308
  0.798828,  0.202637,  0.492676,1478626841.329
  0.783203,  0.201172,  0.518555,1478626841.353
  0.785156,  0.204102,  0.504395,1478626841.376
  0.779297,  0.178223,  0.524414,1478626841.389
  0.791992,  0.143555,  0.527832,1478626841.421
  0.795410,  0.139160,  0.512207,1478626841.428
  0.816895,  0.148438,  0.517578,1478626841.450
  0.818848,  0.156738,  0.508789,1478626841.466
  0.841797,  0.180176,  0.474609,1478626841.488
  0.866699,  0.173340,  0.484375,1478626841.511
  0.836914,  0.148926,  0.498535,1478626841.525
  0.841309,  0.158691,  0.490723,1478626841.548
  0.849609,  0.175781,  0.474121,1478626841.571
  0.853027,  0.182617,  0.460449,1478626841.585
  0.817871,  0.203125,  0.459961,1478626841.608
  0.833496,  0.217773,  0.453613,1478626841.631
  0.826172,  0.225586,  0.441406,1478626841.646
  0.839355,  0.252441,  0.451660,1478626841.668
  0.851074,  0.232422,  0.432617,1478626841.691
  0.863281,  0.223145,  0.412598,1478626841.705
  0.880859,  0.202637,  0.421387,1478626841.729
  0.901367,  0.211426,  0.415039,1478626841.766
  0.937500,  0.223633,  0.429688,1478626841.772
  0.960449,  0.237793,  0.440918,1478626841.803
  0.951660,  0.225586,  0.450195,1478626841.811
  0.910156,  0.231445,  0.455566,1478626841.841
  0.932129,  0.237793,  0.461914,1478626841.848
  0.923828,  0.223633,  0.451172,1478626841.878
  0.888672,  0.191406,  0.428223,1478626841.892
  0.864746,  0.183105,  0.396484,1478626841.914
  0.869629,  0.203613,  0.380371,1478626841.931
  0.861328,  0.207520,  0.349121,1478626841.952
  0.861328,  0.212402,  0.347656,1478626841.968
  0.850098,  0.216797,  0.330566,1478626841.992
  0.849121,  0.217773,  0.321289,1478626842.013
  0.860840,  0.218262,  0.333984,1478626842.028
  0.876465,  0.193848,  0.333496,1478626842.051
  0.875488,  0.163086,  0.342773,1478626842.080
  0.876953,  0.161621,  0.345215,1478626842.088
  0.873535,  0.150391,  0.358398,1478626842.111
  0.869629,  0.146484,  0.387695,1478626842.132
  0.859375,  0.142578,  0.395508,1478626842.148
  0.874023,  0.137207,  0.384277,1478626842.171
  0.874512,  0.145020,  0.362305,1478626842.192
  0.900391,  0.143555,  0.340820,1478626842.208
  0.924316,  0.143555,  0.322266,1478626842.230
  0.957031,  0.151855,  0.324707,1478626842.252
  0.985840,  0.165039,  0.318359,1478626842.268
  0.998047,  0.178711,  0.318848,1478626842.290
  0.976563,  0.172363,  0.345703,1478626842.312
  0.960938,  0.180176,  0.358398,1478626842.336
  0.954102,  0.191406,  0.357910,1478626842.357
  0.945801,  0.200195,  0.344727,1478626842.372
  0.936035,  0.192871,  0.353027,1478626842.388
  0.930664,  0.183105,  0.343750,1478626842.410
  0.921387,  0.202637,  0.347168,1478626842.433
  0.912598,  0.169922,  0.357910,1478626842.448
  0.879395,  0.134766,  0.354492,1478626842.470
  0.864746,  0.128906,  0.337402,1478626842.494
  0.872559,  0.136719,  0.333984,1478626842.508
  0.883789,  0.130859,  0.319336,1478626842.530
  0.878418,  0.135742,  0.310547,1478626842.554
  0.895996,  0.120605,  0.293945,1478626842.568
  0.895020,  0.128418,  0.291992,1478626842.590
  0.918457,  0.133789,  0.281738,1478626842.613
  0.928711,  0.123535,  0.300781,1478626842.636
  0.921387,  0.108887,  0.302734,1478626842.650
  0.919922,  0.070801,  0.291992,1478626842.673
  0.921387,  0.042480,  0.316406,1478626842.687
  0.900391,  0.032227,  0.329590,1478626842.718
  0.876465,  0.012207,  0.354492,1478626842.724
  0.824707, -0.050293,  0.389648,1478626842.747
  0.759766, -0.066406,  0.423340,1478626842.769
  0.716309, -0.111816,  0.426758,1478626842.784
  0.703613, -0.161621,  0.578125,1478626842.807
  0.681641, -0.070801,  1.035645,1478626842.829
  0.546875,  0.195313,  1.408203,1478626842.853
  0.416016,  0.575195,  1.043945,1478626842.867
  0.611328,  0.613770,  0.531738,1478626842.889
  0.929199,  0.289063,  0.293945,1478626842.913
  0.671387, -0.021484,  0.241699,1478626842.927
  0.376953, -0.141602,  0.218262,1478626842.941
  0.522461, -0.423340,  0.480957,1478626842.964
  0.739746, -0.546875,  0.750977,1478626842.995
  0.606934, -0.593750,  1.023438,1478626843.002
  0.266602, -0.461914,  1.042969,1478626843.024
  0.141113, -0.204102,  0.842773,1478626843.047
  0.263184, -0.009766,  0.618652,1478626843.062
  0.293457,  0.118652,  0.689453,1478626843.086
  0.078613,  0.151855,  0.755371,1478626843.115
 -0.136230, -0.017578,  0.875488,1478626843.121
 -0.146484, -0.241211,  0.927246,1478626843.144
 -0.056641, -0.340820,  1.105957,1478626843.167
 -0.148926, -0.376953,  1.285645,1478626843.190
 -0.335938, -0.398926,  1.261719,1478626843.204
 -0.357910, -0.263672,  1.125488,1478626843.227
 -0.246582, -0.069336,  1.033691,1478626843.241
 -0.039063,  0.013672,  1.088379,1478626843.264
  0.095703, -0.041504,  1.082031,1478626843.295
  0.143555, -0.170410,  1.020996,1478626843.301
  0.102539, -0.258789,  1.060059,1478626843.335
  0.021973, -0.273926,  1.146484,1478626843.346
  0.005859, -0.234375,  1.127930,1478626843.370
 -0.007813, -0.148926,  1.064453,1478626843.384
  0.004395, -0.194824,  0.940918,1478626843.415
 -0.053223, -0.240234,  0.957520,1478626843.421
 -0.091797, -0.200684,  0.927246,1478626843.453
 -0.027344, -0.154785,  0.895508,1478626843.467
 -0.006348, -0.138672,  0.884766,1478626843.482
  0.017578, -0.163574,  0.879883,1478626843.504
  0.021973, -0.221191,  0.892578,1478626843.527
  0.032227, -0.303223,  0.915527,1478626843.541
  0.016602, -0.385254,  0.928711,1478626843.572
  0.028320, -0.433105,  0.896973,1478626843.587
  0.033691, -0.405273,  0.979004,1478626843.602
 -0.076172, -0.424805,  1.020020,1478626843.635
 -0.042480, -0.352539,  1.001465,1478626843.647
  0.047363, -0.321289,  0.920410,1478626843.661
  0.066895, -0.315430,  0.881348,1478626843.692
  0.014160, -0.371094,  0.912598,1478626843.724
 -0.049316, -0.384277,  0.938477,1478626843.730
 -0.056641, -0.429688,  0.891113,1478626843.745
  0.010254, -0.468750,  0.876465,1478626843.775
 -0.014648, -0.416992,  0.902832,1478626843.781
 -0.075684, -0.293457,  0.894531,1478626843.805
 -0.081543, -0.319824,  0.852051,1478626843.826
 -0.066406, -0.396973,  0.846191,1478626843.849
 -0.063965, -0.396484,  0.852539,1478626843.864
 -0.108887, -0.419434,  0.854492,1478626843.886
 -0.161133, -0.443359,  0.956055,1478626843.909
 -0.168945, -0.464844,  0.902832,1478626843.924
 -0.109375, -0.532227,  0.876465,1478626843.946
 -0.143555, -0.538574,  0.867188,1478626843.961
 -0.141602, -0.460449,  0.855957,1478626843.984
 -0.127930, -0.402832,  0.852051,1478626844.006
 -0.108398, -0.375000,  0.864258,1478626844.024
 -0.076660, -0.413086,  0.881836,1478626844.044
 -0.063965, -0.418457,  0.875488,1478626844.067
 -0.065430, -0.411621,  0.890625,1478626844.081
 -0.074707, -0.364746,  0.884277,1478626844.105
 -0.071777, -0.354492,  0.884766,1478626844.128
 -0.077637, -0.429688,  0.889648,1478626844.143
 -0.096191, -0.451172,  0.858398,1478626844.164
 -0.113281, -0.478516,  0.866699,1478626844.188
 -0.090820, -0.481934,  0.869629,1478626844.203
 -0.058594, -0.465820,  0.850586,1478626844.224
 -0.074219, -0.472168,  0.865723,1478626844.246
 -0.090820, -0.448242,  0.869141,1478626844.263
 -0.082520, -0.430664,  0.864258,1478626844.284
 -0.075195, -0.447754,  0.868652,1478626844.306
 -0.080566, -0.458496,  0.875000,1478626844.323
 -0.088379, -0.458984,  0.875000,1478626844.344
 -0.088379, -0.439941,  0.870117,1478626844.366
 -0.081055, -0.421875,  0.855957,1478626844.383
 -0.087402, -0.426758,  0.878906,1478626844.407
 -0.091797, -0.432129,  0.869141,1478626844.426
 -0.082031, -0.449707,  0.871582,1478626844.443
 -0.081055, -0.458008,  0.875000,1478626844.464
 -0.083008, -0.442871,  0.870117,1478626844.480
 -0.089844, -0.408203,  0.874512,1478626844.502
 -0.084961, -0.394043,  0.876465,1478626844.528
 -0.088379, -0.418945,  0.878418,1478626844.540
 -0.081543, -0.436523,  0.866699,1478626844.563
 -0.077637, -0.438965,  0.873047,1478626844.584
 -0.085449, -0.434570,  0.867676,1478626844.600
 -0.084473, -0.419922,  0.867188,1478626844.623
 -0.088867, -0.421875,  0.873047,1478626844.644
 -0.092285, -0.435059,  0.878906,1478626844.662
 -0.082520, -0.437988,  0.877441,1478626844.684
 -0.082520, -0.442871,  0.894531,1478626844.704
  0.480469, -0.788086,  0.666016,1478626971.268
  0.708496, -1.607422,  0.759766,1478626971.275
  0.420410, -0.788574,  0.488770,1478626971.298
  0.766602, -1.384766,  0.451172,1478626971.328
  0.589355, -1.384277,  0.255859,1478626971.343
  0.443848, -1.219238,  0.242188,1478626971.358
  0.600098, -1.225098,  0.395996,1478626971.380
  0.673340, -1.489746,  0.550293,1478626971.395
  0.708496, -1.410156,  0.327148,1478626971.418
  0.836914, -1.249512,  0.063477,1478626971.441
  0.877930, -1.300293, -0.033691,1478626971.455
  0.755371, -1.195801, -0.152832,1478626971.479
  0.772461, -1.020996, -0.220703,1478626971.493
  0.724121, -1.024414, -0.124023,1478626971.515
  0.662109, -0.931152, -0.118652,1478626971.538
  0.621582, -0.702637, -0.215820,1478626971.553
  0.557129, -0.461914, -0.308594,1478626971.575
  0.597656, -0.502930, -0.187500,1478626971.644
  0.729492, -0.447754, -0.196289,1478626971.652
  0.640137, -0.313477, -0.340332,1478626971.663
  0.539063, -0.208496, -0.295410,1478626971.665
  0.520020, -0.072266, -0.216309,1478626971.680
  0.629395, -0.068848, -0.125977,1478626971.695
  0.792480,  0.033691, -0.207520,1478626971.718
  0.807617,  0.126465, -0.289063,1478626971.740
  0.704102,  0.245605, -0.344238,1478626971.755
  0.618164,  0.275391, -0.430176,1478626971.778
  0.543945,  0.336914, -0.485352,1478626971.793
  0.455078,  0.444824, -0.578613,1478626971.816
  0.406738,  0.502930, -0.668945,1478626971.855
  0.356445,  0.538086, -0.722168,1478626971.855
  0.370605,  0.498047, -0.763672,1478626971.883
  0.421387,  0.253418, -0.751465,1478626971.898
  0.580078,  0.237305, -0.723633,1478626971.913
  0.652832,  0.300781, -0.689941,1478626971.935
  0.634277,  0.123535, -0.716797,1478626971.958
  0.643555, -0.172363, -0.546875,1478626972.004
  0.767578, -0.247070, -0.475098,1478626972.004
  0.662109, -0.293457, -0.552246,1478626972.018
  0.528809, -0.523926, -0.619629,1478626972.033
  0.520508, -0.699219, -0.520020,1478626972.055
  0.449219, -0.817871, -0.527344,1478626972.078
  0.470215, -0.816895, -0.571289,1478626972.093
  0.280762, -0.905273, -0.631836,1478626972.115
  0.861328, -0.908203, -0.356445,1478626972.138
  0.557129, -0.977539, -0.675781,1478626972.160
  0.203125, -1.318359, -0.671875,1478626972.175
  0.040039, -1.379395, -0.805664,1478626972.198
  0.161133, -1.241211, -0.898438,1478626972.213
  0.303711, -1.128906, -0.908691,1478626972.235
  0.244629, -0.996094, -1.034668,1478626972.258
  0.262207, -0.715332, -1.010742,1478626972.272
  0.080078, -0.690918, -1.040527,1478626972.295
  0.050293, -0.781250, -1.076172,1478626972.318
 -0.052734, -0.756836, -0.933105,1478626972.333
 -0.117676, -0.745605, -0.888184,1478626972.355
 -0.097656, -0.411133, -0.984863,1478626972.378
 -0.030273, -0.356445, -1.024902,1478626972.393
 -0.070801, -0.492676, -0.888672,1478626972.415
 -0.572754, -0.446289, -0.778320,1478626972.438
 -0.179199, -0.426758, -1.117676,1478626972.453
 -0.219238, -0.437988, -1.224121,1478626972.475
 -0.403320, -0.540527, -1.175293,1478626972.498
 -0.028320, -0.507324, -1.011719,1478626972.513
 -0.449219, -0.228516, -1.143066,1478626972.543
 -0.196289,  0.004395, -1.125000,1478626972.558
 -0.246094,  0.298828, -0.961426,1478626972.573
 -0.288086,  0.389648, -0.860840,1478626972.595
 -0.402344,  0.392578, -0.690918,1478626972.618
 -0.227051,  0.505371, -0.494141,1478626972.640
 -0.100586,  0.513184, -0.371094,1478626972.655
  0.195313, -0.236816, -0.157715,1478626972.678
 -0.519043,  0.297363, -1.101563,1478626972.700
 -0.380371, -0.071777, -0.761230,1478626972.715
 -0.166992, -0.499512, -1.083008,1478626972.738
 -0.262695, -0.153320, -1.337402,1478626972.752
 -0.182617, -0.044922, -1.159668,1478626972.775
 -0.181641,  0.174805, -1.050781,1478626972.821
 -0.129395,  0.321289, -0.789063,1478626972.828
 -0.066895,  0.404297, -0.348633,1478626972.835
  0.261230,  0.132813,  0.102051,1478626972.858
  0.599121, -0.054199,  0.036621,1478626972.873
  1.245605, -0.480469,  0.495605,1478626972.903
  1.187500,  0.252441,  0.291504,1478626972.918
  1.092285,  1.026367, -0.309570,1478626972.933
  1.114258, -0.521484,  0.211914,1478626972.963
  1.357910, -0.399414,  0.817871,1478626972.993
  1.152344,  0.365234,  0.741699,1478626972.994
  1.015137,  1.586426,  1.316406,1478626973.015
  0.803223, -0.304688,  1.048828,1478626973.038
  1.142090,  0.145020,  0.630859,1478626973.053
  1.142090,  0.650391,  0.381836,1478626973.075
  1.075195,  1.277344,  0.257813,1478626973.098
  1.023438,  1.028320,  0.277344,1478626973.113
  0.982910,  0.509766,  0.220703,1478626973.135
  0.994141, -0.045410,  0.194336,1478626973.158
  0.854980, -0.149414,  0.244141,1478626973.173
  0.765137, -0.695313,  0.386230,1478626973.195
  1.311035, -0.500000,  1.363770,1478626973.218
  0.580566, -0.287598, -0.046875,1478626973.233
  1.211914,  1.241699,  0.380371,1478626973.255
  0.796875,  0.145020, -0.414551,1478626973.277
 -0.082520,  0.619141,  0.095703,1478626973.292
  2.720215,  0.818359, -1.251465,1478626973.315
 -0.338379, -1.547363,  1.764160,1478626973.338
  0.918457, -0.106445, -1.008789,1478626973.353
  3.187012, -2.553223, -0.346191,1478626973.375
 -0.679199,  0.334961,  0.473145,1478626973.398
  1.525391, -2.598145, -3.495117,1478626973.413
 -1.272461,  0.518066, -2.297852,1478626973.435
  0.514648, -2.574219, -1.174316,1478626973.458
  2.509766, -1.097168, -8.078613,1478626973.473
  1.813477, -0.566895,  0.554688,1478626973.495
 -1.135742, -0.609863, -1.731934,1478626973.510
  0.830078, -6.542480, -0.243652,1478626973.533
  4.062988, -0.463379, -0.263672,1478626973.555
  0.180664, -0.291504,  1.030762,1478626973.570
 -1.616211,  0.786133,  1.721191,1478626973.593
  0.972656, -0.727539,  0.175293,1478626973.615
  0.368164,  0.081055,  1.021484,1478626973.630
  1.653320, -1.302734,  0.006836,1478626973.653
  0.871582, -1.208496,  0.585449,1478626973.675
  0.322754, -1.161133,  0.333496,1478626973.690
  0.552246, -0.813477,  0.229004,1478626973.720
  0.416016, -0.723145,  0.268066,1478626973.751
 -0.432617, -1.204590,  0.913574,1478626973.752
  0.720703, -1.780762,  1.039551,1478626973.773
  1.711914, -1.193848,  0.158691,1478626973.802
  0.737793,  0.076172,  1.166992,1478626973.810
  0.504883, -1.141602,  1.086426,1478626973.840
 -0.712402,  0.210938, -0.433105,1478626973.855
 -1.152344, -1.269043,  3.197754,1478626973.870
 -1.187988,  2.544434,-11.567871,1478626973.893
  1.035156, -3.766113,-11.152832,1478626973.915
  1.254395, -5.202148, -4.093750,1478626973.930
  0.327637, -4.725098,  3.083008,1478626973.953
  0.072754, -0.226074,  0.359863,1478626973.975
  1.266602, -0.808594,  2.514648,1478626973.990
  0.217285,  0.011230,  1.015625,1478626974.013
 -0.213867,  0.088379, -0.454590,1478626974.035
  0.594238, -0.860840,  0.849609,1478626974.050
  0.944336, -1.117188,  0.146973,1478626974.073
  0.502930, -1.786621, -0.491211,1478626974.095
  0.814453, -1.728516, -0.536133,1478626974.118
  0.483398, -1.236328, -0.426270,1478626974.133
  0.157227, -0.997559, -0.925293,1478626974.163
  0.180664, -0.562012, -1.196777,1478626974.170
  0.368652, -0.463379, -1.221680,1478626974.193
  0.473145, -0.817383, -1.195801,1478626974.215
  0.466797, -1.044922, -1.454102,1478626974.230
  0.708496, -1.071777, -1.187988,1478626974.253
  0.018066, -3.141113, -0.286621,1478626974.275
  1.439941, -0.726074, -0.357422,1478626974.290
  1.806152, -0.035156, -6.562012,1478626974.313
  0.840332, -0.679199, -5.667480,1478626974.335
 -0.732422, -0.851563, -2.509277,1478626974.350
 -0.118164,  4.578125, -3.093262,1478626974.380
 -0.953613,  1.059082, -1.428711,1478626974.395
 -0.234375, -0.499512, -6.095215,1478626974.410
  1.223145, -0.327148, -4.573730,1478626974.433
  0.783203,  0.584961,  0.174805,1478626974.455
 -0.212402, -0.221680, -1.724609,1478626974.470
  0.782715, -0.131348, -1.465332,1478626974.493
  1.048340, -1.109375, -1.140137,1478626974.515
  0.672363, -0.637695, -1.236816,1478626974.530
  0.523926, -0.561523, -0.817383,1478626974.553
  0.420898, -0.082520, -0.887207,1478626974.575
  0.260742,  0.352051, -0.925781,1478626974.605
  0.184082,  0.672363, -1.157715,1478626974.628
  0.243164,  0.847656, -1.145996,1478626974.643
  0.059570,  1.296387, -1.050293,1478626974.665
  0.596191,  1.430176, -1.186523,1478626974.673
  0.086426,  0.107910, -0.992676,1478626974.695
  1.331543, -1.232422, -2.590820,1478626974.710
 -0.505859, -0.717285, -0.933105,1478626974.733
  0.004395,  1.225098, -5.883301,1478626974.755
  0.733887, -1.125000, -1.962402,1478626974.770
 -0.990234, -1.402832,  0.783203,1478626974.792
 -0.819824, -1.939453, -0.588379,1478626974.815
 -0.232422, -2.783203, -4.859863,1478626974.830
 -0.039063,  3.815918, -3.935059,1478626974.853
  0.578613,  6.373047, -2.329590,1478626974.875
  0.145508,  3.843262, -1.777832,1478626974.890
 -0.437500,  1.062012, -0.295898,1478626974.913
  0.405762,  2.862305,  1.381348,1478626974.935
  0.432617,  1.349609, -0.021484,1478626974.950
  0.618164,  2.383301,  0.766602,1478626974.973
  0.706055,  0.493164, -0.469238,1478626974.995
  0.650391,  0.892090,  0.741699,1478626975.010
  0.463867,  0.809570,  0.468750,1478626975.040
  0.302246,  0.781250,  0.736816,1478626975.055
 -0.016113,  0.696777,  0.715332,1478626975.070
  0.012695,  0.587891,  0.767090,1478626975.093
  0.093750,  0.541504,  0.885254,1478626975.115
  0.227539,  0.431152,  1.104492,1478626975.130
  0.166992,  0.296387,  1.379395,1478626975.153
  0.104492,  0.215332,  1.590820,1478626975.175
  0.288574, -0.677246,  1.903809,1478626975.190
  2.057617,  2.128418,  0.716797,1478626975.220
 -0.974609, -1.125000, -0.267090,1478626975.235
  1.038574,  0.380859,  0.670410,1478626975.258
  0.453613,  0.631348,  0.407227,1478626975.273
 -0.078613,  3.408203, -2.767090,1478626975.303
  0.320313, -1.929688, -5.182617,1478626975.310
  0.710449,  2.062500,  4.104980,1478626975.332
  2.318848, -8.569824,  7.872070,1478626975.355
 -0.759277,  0.806641,  1.750977,1478626975.370
 -0.726074, -2.602051, -2.964355,1478626975.393
  1.861328, -0.000488, -0.369141,1478626975.415
 -0.007813,  0.681152,  3.128906,1478626975.430
  0.021973,  0.234375,  1.030762,1478626975.453
  0.231934, -0.713867,  1.004883,1478626975.475
  0.156738, -1.352051, -0.055664,1478626975.490
  0.878418, -1.275879,  0.201172,1478626975.513
  0.417969, -1.604980, -0.195313,1478626975.535
  0.591797, -1.602539, -0.343750,1478626975.550
  0.312988, -1.612793, -0.203125,1478626975.573
  0.348145, -1.074219, -0.713867,1478626975.603
 -1.304199, -1.970703,  0.490234,1478626975.610
  0.008789, -2.729980, -1.552734,1478626975.633
  3.241699, -2.178711,  1.793457,1478626975.655
  2.064941, -0.906250, -1.264160,1478626975.670
 -0.566406, -1.654785, -3.558594,1478626975.700
 -2.705078,  2.945313, -0.568359,1478626975.715
  0.977539,  2.610352, -2.524902,1478626975.730
 -1.515625,  2.535156,  3.131836,1478626975.753
  0.237793,  1.468262, -4.489746,1478626975.783
  2.048340,  2.079590, -0.944336,1478626975.790
  0.559082, -3.760742, -3.358398,1478626975.812
  0.451172, -1.257813, -0.046875,1478626975.827
  0.502441, -1.413086, -3.814941,1478626975.850
  0.888184,  1.159180, -1.740234,1478626975.872
  0.254883, -0.013184, -1.058594,1478626975.887
  0.276367, -0.159668, -0.725586,1478626975.910
  0.412598,  0.239746, -1.362305,1478626975.933
 -3.203613,  7.544434,  2.521484,1478626975.947
  0.251953,  0.196289, -1.078613,1478626975.971
  4.229004,  0.742676, -0.617676,1478626976.000
  1.442383,  0.972656, -0.109863,1478626976.015
  1.474609,  1.929199, -1.976563,1478626976.030
  0.791016,  2.417480, -0.762207,1478626976.053
  1.049316,  1.617188, -0.626465,1478626976.075
  0.986816,  1.484863, -0.563965,1478626976.113
  1.765625,  1.538574, -0.825684,1478626976.114
  1.271484,  2.056641, -0.790039,1478626976.135
  1.380859,  2.197754, -1.172852,1478626976.165
  0.487793,  2.141602, -2.064941,1478626976.188
 -0.888184,  2.061035, -2.288574,1478626976.211
 -3.879395,  1.318359, -0.145996,1478626976.211
 -1.837402,  0.448730, -0.227539,1478626976.240
 -2.460449, -0.670898, -0.154785,1478626976.248
 -1.705566, -1.791504,  0.605469,1478626976.270
 -1.266113, -2.590820,  1.372559,1478626976.293
 -1.063965, -2.000488,  0.979492,1478626976.308
 -0.719727, -1.285645,  0.543457,1478626976.330
 -0.083008, -0.602539,  0.222656,1478626976.352
  0.023438, -0.119629,  0.036133,1478626976.367
  0.596680, -0.337891,  0.385254,1478626976.390
  0.685547, -0.890625,  0.627930,1478626976.429
  0.793945, -1.233887,  0.680176,1478626976.429
  1.152832, -1.850098,  0.656738,1478626976.450
  0.230957, -1.736328,  0.838867,1478626976.473
  0.220703, -1.175781,  0.540527,1478626976.488
 -0.544922, -0.489746,  0.489258,1478626976.510
  0.032227, -0.149414,  0.466309,1478626976.533
  0.367676,  0.108887,  0.044434,1478626976.548
 -0.683105,  0.398926,  0.555664,1478626976.570
 -0.999512,  0.368652,  0.409668,1478626976.600
 -0.754883,  0.555664, -0.144531,1478626976.608
 -1.033203, -0.261719, -0.123535,1478626976.630
  0.073730, -1.390625, -0.881348,1478626976.653
 -1.873535,  0.454102, -0.785156,1478626976.668
 -3.238281,  0.551758, -0.497559,1478626976.690
 -2.550781,  1.208008, -0.115723,1478626976.713
 -2.003418,  2.471680, -0.751953,1478626976.728
 -0.906250,  3.087402, -1.386230,1478626976.750
 -0.558594,  3.037598, -1.416992,1478626976.773
 -0.911621,  3.019531, -0.913086,1478626976.788
 -0.894531,  2.892578, -0.540527,1478626976.810
 -0.807617,  2.707520, -0.621094,1478626976.833
 -0.837891,  2.379395, -0.600098,1478626976.848
 -0.847168,  2.072754, -0.756836,1478626976.877
 -0.756836,  1.645020, -0.760254,1478626976.892
 -0.634277,  1.359863, -0.687988,1478626976.908
 -0.437988,  1.086426, -0.808105,1478626976.930
 -0.416016,  0.854004, -0.592773,1478626976.952
 -0.673340,  0.946777, -0.479980,1478626976.967
 -0.715332,  1.011230, -0.593750,1478626976.990
 -1.586914,  0.683105, -0.136230,1478626977.013
 -1.786133,  0.408203, -0.111816,1478626977.028
 -1.402832,  0.187500,  0.079590,1478626977.050
 -0.888672, -0.307129,  0.042480,1478626977.073
 -1.187012, -0.421387,  0.092773,1478626977.088
 -1.115723, -0.895508,  0.903809,1478626977.110
 -1.243164, -1.539063,  0.915527,1478626977.133
  0.085938, -2.431152,  0.832520,1478626977.155
  0.443848, -2.799316,  0.667480,1478626977.170
  0.781250, -2.418945, -0.139648,1478626977.193
  1.385742, -1.629395, -0.574707,1478626977.208
  1.293457, -1.090332, -1.410645,1478626977.230
  1.625977, -0.898438, -1.642090,1478626977.260
  1.533691, -0.688477, -1.698242,1478626977.267
  1.187012, -0.875488, -2.278320,1478626977.290
  1.393066, -0.812500, -1.484375,1478626977.312
  1.142578, -0.826172, -1.539063,1478626977.327
  1.122070, -0.849609, -0.637695,1478626977.350
  1.054199, -0.737305,  0.831543,1478626977.373
  1.189453, -0.455078,  0.935059,1478626977.388
  1.134277, -0.466309,  0.954102,1478626977.410
  1.083008, -0.829102,  0.717285,1478626977.432
  0.357422, -0.342285,  0.793457,1478626977.447
 -0.772949,  0.818848,  0.501953,1478626977.470
 -0.834473,  0.947754, -0.372559,1478626977.485
 -1.234375,  0.485840,  0.018066,1478626977.507
 -2.750488,  0.013184,  0.461914,1478626977.530
 -3.657227,  0.077148, -1.481934,1478626977.546
 -2.324219, -1.314453, -2.413086,1478626977.568
  0.838379, -1.484863, -0.583008,1478626977.590
  0.118164,  0.124023, -2.378418,1478626977.605
  0.907715, -0.306641, -2.993652,1478626977.628
 -1.057129, -0.021484, -0.599609,1478626977.650
 -0.691406, -0.487793, -1.877930,1478626977.673
 -0.677734, -1.286621, -1.603516,1478626977.688
 -0.571289, -1.274902, -1.802734,1478626977.710
 -0.622070, -0.962891, -1.712402,1478626977.733
 -0.601563, -0.654297, -1.636230,1478626977.748
 -0.546387, -0.526367, -1.516602,1478626977.770
 -0.556641, -0.350098, -1.617188,1478626977.785
 -0.061523, -0.496094, -1.618164,1478626977.808
  0.028320, -0.457031, -1.742676,1478626977.830
 -0.264160, -0.292969, -1.812988,1478626977.845
 -0.126953, -0.324219, -1.678223,1478626977.867
 -0.346680, -0.231445, -1.217285,1478626977.897
 -0.421387, -0.162109, -1.172852,1478626977.905
  0.169434, -0.231934, -0.418457,1478626977.927
  0.422363, -0.427734, -1.694824,1478626977.950
 -0.742188,  0.277344, -1.303711,1478626977.965
 -1.427734, -0.001953, -1.870605,1478626977.987
 -0.778320,  1.218750, -0.369141,1478626978.010
 -0.108887,  0.205078,  0.898926,1478626978.025
 -0.463867, -0.228027,  3.238770,1478626978.048
 -0.662598, -0.781250,  4.684570,1478626978.070
 -2.227051, -2.009277,  4.799316,1478626978.093
 -0.881348, -0.569336,  4.053711,1478626978.108
 -0.265625, -0.268555,  2.490234,1478626978.130
  0.273438,  0.053223,  0.990723,1478626978.153
  0.385254,  0.278809,  0.119141,1478626978.168
  0.123535,  0.036133, -0.640625,1478626978.190
  0.052246, -0.253418, -0.771484,1478626978.205
  0.440918, -0.716309, -0.577148,1478626978.228
  0.071289, -0.475098, -0.719238,1478626978.250
 -0.020508,  0.002441, -0.159180,1478626978.265
 -0.416504,  0.775879, -0.603027,1478626978.288
 -0.975098,  0.147949, -1.026855,1478626978.310
 -1.576660,  0.160156, -1.094727,1478626978.325
 -2.088867,  1.091797, -1.942871,1478626978.348
 -2.064453,  0.723633, -3.686523,1478626978.370
 -0.229492, -2.911621, -4.022949,1478626978.385
  1.528809,  0.202148, -1.356445,1478626978.407
 -0.923828,  0.205078, -3.325684,1478626978.430
 -0.320801,  0.366211, -2.504395,1478626978.445
 -0.034668, -0.658691, -2.648438,1478626978.467
 -0.866699, -0.786621, -2.463867,1478626978.490
 -1.129883, -0.723145, -2.813965,1478626978.505
 -0.917969, -0.065918, -2.670410,1478626978.527
 -0.351563, -0.176270, -1.503418,1478626978.550
  0.036621, -0.075684, -0.491211,1478626978.565
  0.226074,  0.306641, -1.009766,1478626978.588
  0.249023,  0.538086, -0.477539,1478626978.610
 -0.457031,  0.756348, -0.623047,1478626978.626
 -0.109375,  0.638672, -0.063965,1478626978.648
 -0.287109,  0.304688,  0.370117,1478626978.670
 -0.694336, -0.391602,  1.437988,1478626978.685
 -0.617676, -1.499512,  2.558594,1478626978.708
 -0.029297, -2.467773,  3.653809,1478626978.730
 -0.849121, -3.039551,  2.603516,1478626978.745
 -0.286133, -0.954590,  0.761719,1478626978.768
  0.200684, -0.680176,  0.925293,1478626978.790
  0.923828, -0.533203,  1.066895,1478626978.805
  0.561035, -0.825684,  0.364258,1478626978.828
  0.739746, -0.339844,  0.360840,1478626978.850
  0.689941, -0.105469, -0.875000,1478626978.865
 -0.182617,  0.115723,  0.098145,1478626978.887
  0.500488,  1.151855,  0.255859,1478626978.910
 -0.964355,  2.079590,  0.177734,1478626978.925
 -1.000977,  0.399414,  0.915527,1478626978.947
 -0.601074,  0.033691, -1.167480,1478626978.970
 -4.976563,  0.754395,  2.755859,1478626978.985
 -3.835449,  0.252930,  1.265625,1478626979.008
 -2.274414,  1.168457,  1.871582,1478626979.030
 -2.113770,  1.350586,  2.099121,1478626979.045
 -1.154297,  2.614746,  1.282715,1478626979.067
 -0.483887,  0.258301,  1.646484,1478626979.090
 -0.629883, -0.003418,  0.821289,1478626979.105
 -0.294434, -0.124023,  0.648926,1478626979.128
 -0.616699,  0.311035,  0.651855,1478626979.150
 -0.963379,  0.928223,  0.010742,1478626979.165
 -0.790527,  0.320801,  0.514648,1478626979.188
 -0.688965,  0.078613,  0.767578,1478626979.210
 -0.813477, -0.203613,  0.770020,1478626979.225
 -1.288086, -0.249512,  0.370117,1478626979.248
 -0.009277, -0.566406,  0.149414,1478626979.270
  0.196289, -0.102539, -0.504395,1478626979.285
  0.895508,  0.841797, -0.293457,1478626979.308
  0.620117, -0.065430,  0.489258,1478626979.330
 -0.075195, -0.039551,  0.668457,1478626979.345
 -0.099121, -1.283691,  0.031250,1478626979.367
  1.706543, -1.058594,  0.645996,1478626979.391
  0.868652, -0.687988,  0.115234,1478626979.405
  1.402832, -1.899902, -3.608887,1478626979.427
 -0.436035, -1.803223, -3.169434,1478626979.450
  1.082520,  0.720215, -2.484863,1478626979.465
  1.389648,  0.009766, -0.394531,1478626979.487
  1.703613,  1.073730,  0.516113,1478626979.510
 -0.592285, -0.229004,  1.519531,1478626979.525
 -0.865723,  0.887695,  1.573242,1478626979.547
  0.441895, -0.505371, -1.170410,1478626979.577
 -0.193359, -1.732910, -1.335449,1478626979.585
 -0.370117, -1.852539, -1.276367,1478626979.615
 -0.830078, -2.435547, -2.512207,1478626979.623
 -0.152832, -2.507813, -3.429688,1478626979.653
 -0.727539, -0.611328, -0.567871,1478626979.683
 -0.681152, -0.687012, -1.794434,1478626979.690
 -1.202637, -0.317871, -3.739258,1478626979.705
 -2.010254, -0.172363, -3.334473,1478626979.728
  0.003906, -0.583984, -3.914551,1478626979.743
 -0.146484, -0.911133, -5.807617,1478626979.765
 -0.499512,  1.386719, -1.760254,1478626979.788
 -0.464844,  1.234375, -1.372070,1478626979.803
 -0.704102,  1.112305, -1.717773,1478626979.825
 -1.432129,  0.998047, -1.354004,1478626979.848
 -1.540527,  0.636230, -2.195801,1478626979.863
 -1.004883,  0.145020, -2.006836,1478626979.885
 -0.519531,  0.357422, -0.649414,1478626979.907
 -0.189453,  1.384766,  1.050293,1478626979.930
 -0.571289, -0.263184,  0.545410,1478626979.945
 -0.225586, -1.127441,  0.020020,1478626979.967
 -1.686523, -3.049316,  0.155762,1478626979.982
  0.116699, -2.537109,  0.341309,1478626980.005
  0.280762, -1.733398, -0.249023,1478626980.027
 -0.601563, -1.091309, -1.920898,1478626980.042
 -0.702637, -0.330078, -3.478516,1478626980.065
 -2.659180, -1.032715, -4.805176,1478626980.087
  0.581543,  1.054688, -3.138672,1478626980.102
 -0.473145,  4.699219, -4.594238,1478626980.125
 -0.837402,  3.604004, -0.375000,1478626980.148
  1.404785,  0.700684,  1.556641,1478626980.163
  0.552246,  1.080566, -0.372559,1478626980.185
  2.118164,  0.802246,  2.455566,1478626980.208
  3.280762,  0.478027,  0.977051,1478626980.223
  1.068359, -0.509766,  1.921387,1478626980.246
  1.654785, -0.785645,  2.116699,1478626980.268
  2.409180, -0.670898,  1.674805,1478626980.283
  3.398438,  0.087891,  0.836914,1478626980.313
  2.906250,  0.571289,  0.178711,1478626980.327
  1.951660,  0.770020,  0.025879,1478626980.343
  1.324707,  0.628418, -0.778809,1478626980.365
  1.515625,  0.599609, -1.822266,1478626980.404
  2.795898,  0.779297, -2.741699,1478626980.405
  2.182617,  0.410645, -0.698242,1478626980.425
 -0.287109,  2.715332,  5.178223,1478626980.447
 -2.849121,  5.792480,  2.955078,1478626980.462
  0.003906,  4.080078, -0.943359,1478626980.485
 -1.419922, -5.059570,  0.180664,1478626980.515
 -0.966309,  1.057617,  1.383789,1478626980.537
  0.103516, -2.393066, -0.745117,1478626980.560
 -0.414551, -1.363770,  0.681641,1478626980.590
  0.596191, -3.820313, -4.229004,1478626980.597
  0.996094, -1.617188, -6.935547,1478626980.620
  0.028809,  1.879883, -1.194824,1478626980.643
 -0.784180,  0.646973,  3.004395,1478626980.665
 -2.343262,  3.424805,  1.900391,1478626980.680
 -0.558594,  0.027832,  1.868164,1478626980.688
  1.174316, -2.112305,  1.645996,1478626980.703
 -0.087402,  1.018555, -0.476074,1478626980.726
 -1.243164, -0.541016,  0.778320,1478626980.748
  1.339844, -4.388184, -9.471191,1478626980.770
  1.811523,  0.229492, -7.022461,1478626980.801
  0.258789, -0.407715, -0.438477,1478626980.815
 -0.229492, -0.461914, -0.198242,1478626980.830
 -1.752441,  0.791016,  2.120605,1478626980.853
 -1.176270,  1.345703,  4.383789,1478626980.875
 -0.326172,  1.645508,  1.794434,1478626980.898
  0.203125,  0.215332,  0.759766,1478626980.920
 -0.212891, -0.254883, -2.344238,1478626980.927
  1.117676, -2.235352, -6.592773,1478626980.950
  1.149414, -3.916016, -7.805176,1478626980.973
  0.615723,  0.337891, -1.559570,1478626981.004
 -0.248535,  0.255859, -0.853516,1478626981.010
 -0.402344, -1.112793, -1.457031,1478626981.040
 -0.413086,  3.862793,  2.929199,1478626981.070
 -1.709961,  1.413574,  2.248047,1478626981.077
 -1.962402,  1.924805,  3.250977,1478626981.108
  0.964355,  0.283203, -2.487305,1478626981.109
  0.461426,  0.696777, -2.256348,1478626981.130
  0.390137, -3.074707, -9.541504,1478626981.160
  0.155273,  0.108887, -4.128906,1478626981.183
 -0.455078,  0.536133, -0.770996,1478626981.190
 -0.829102,  0.037598, -1.333008,1478626981.220
 -0.892578,  0.628418, -1.274414,1478626981.228
 -0.857422,  0.001953,  0.378418,1478626981.243
 -0.190918, -0.059570,  0.561035,1478626981.265
  0.200195, -0.086426, -0.246094,1478626981.288
 -0.727051,  0.294922,  0.338867,1478626981.318
 -2.497070,  1.193359,  1.105469,1478626981.333
 -2.065918,  0.149902,  0.526367,1478626981.355
 -4.349609,  1.165527, -0.538574,1478626981.378
 -5.459473, -0.045410, -2.108398,1478626981.385
 -4.344727,  1.204102, -3.165039,1478626981.407
 -4.967285,  0.590820, -3.518555,1478626981.423
 -3.074707, -3.074707, -4.470215,1478626981.445
 -1.681641, -2.051270, -0.611328,1478626981.467
 -2.504883, -1.913086, -1.852051,1478626981.497
 -1.083008, -1.529297,  1.271973,1478626981.505
 -0.876465, -0.562988,  0.550781,1478626981.527
 -0.562988, -0.363770,  0.555176,1478626981.542
 -1.036133, -0.860840, -0.034668,1478626981.565
 -1.764160, -1.917969, -0.463379,1478626981.595
 -1.458496, -2.108398, -0.624023,1478626981.610
 -1.456055, -2.056641, -0.489258,1478626981.625
 -1.720703, -1.433594, -1.565430,1478626981.647
 -2.274902, -1.840332, -4.990723,1478626981.662
 -2.161621, -2.215332, -8.685547,1478626981.686
 -1.342773, -2.518066, -4.292969,1478626981.708
  1.670898,  5.003906,  0.767090,1478626981.723
  1.180664,  4.349121, -1.525391,1478626981.745
 -1.430176,  3.798828,  0.974609,1478626981.760
 -0.674805,  1.678223, -1.593750,1478626981.783
 -2.988770, -0.545410, -4.415039,1478626981.805
 -5.583984, -7.791992, -2.591309,1478626981.820
 -0.748535, -1.225098, -6.632813,1478626981.843
 -0.309570, -0.937012, -1.219238,1478626981.873
 -0.753906, -1.332520, -1.803711,1478626981.888
  1.072754,  2.523438, -1.257813,1478626981.903
  0.234375,  7.854004, -3.810547,1478626981.925
 -0.050781,  2.549316,  2.786621,1478626981.940
  1.532227,  2.982422, -2.426270,1478626981.962
 -6.935547, -5.497070, -1.421875,1478626981.985
 -3.410645, -4.901855, -8.348633,1478626982.000
 -1.052734, -1.622559, -2.788086,1478626982.022
  0.745117, -1.906250, -2.833008,1478626982.046
 -0.167969, -0.157227, -1.555176,1478626982.060
 -0.099121,  0.825684, -3.784668,1478626982.082
  0.255371,  2.445801, -2.675781,1478626982.105
 -2.121582, -5.981445,  4.926758,1478626982.120
 -5.637207, -9.176270,  4.249512,1478626982.150
 -4.864746, -3.062012,  0.351074,1478626982.165
  0.239258, -2.139648, -0.586914,1478626982.180
  1.207031, -2.458008, -2.426758,1478626982.202
  0.790527, -0.794922, -0.067383,1478626982.226
  0.305664,  2.840820,  1.490723,1478626982.240
 -1.164551,  2.603516, -1.974609,1478626982.263
 -0.192871,  1.524902, -0.866211,1478626982.285
  0.386230,  1.604004, -2.541016,1478626982.300
 -0.068848,  0.439941, -2.167480,1478626982.323
 -0.228516, -3.173340, -4.730469,1478626982.345
 -2.745117, -5.854004, -0.570801,1478626982.360
 -2.324219, -1.694824, -1.158691,1478626982.383
  3.946289, -0.942871,  0.256348,1478626982.405
 -2.541016, -3.580078, -0.934570,1478626982.428
 -0.522461, -1.125000, -0.424316,1478626982.443
  0.878906,  0.346191,  0.393066,1478626982.465
 -0.420410,  1.936523,  0.435059,1478626982.480
  0.109863, -0.378906,  0.641113,1478626982.503
 -0.014648,  0.733887,  0.259766,1478626982.533
 -0.252930,  0.403320,  0.139160,1478626982.540
  0.179199, -0.635254,  1.334961,1478626982.562
  0.333496, -0.886230,  1.414551,1478626982.593
  0.457031, -1.144043,  1.826172,1478626982.600
 -0.003418, -0.977539,  1.593750,1478626982.622
  0.035156, -0.475098,  1.592773,1478626982.645
  0.381836, -0.182129,  1.272461,1478626982.660
  0.217285,  0.076660,  1.272461,1478626982.682
 -0.083496,  0.461426,  1.202637,1478626982.705
 -0.041016,  0.199219,  1.264160,1478626982.720
 -0.078613, -0.015137,  1.125000,1478626982.743
 -0.159668, -0.190430,  1.116211,1478626982.773
 -0.172363, -0.228516,  1.143555,1478626982.780
 -0.301758, -0.482910,  1.402344,1478626982.803
 -0.681152, -0.333008,  1.581543,1478626982.825
 -0.479980, -0.385254,  0.917969,1478626982.840
  0.001953,  0.090820,  0.856445,1478626982.863
  0.690918,  0.077637,  0.699707,1478626982.885
  0.270508,  0.609863,  0.675293,1478626982.900
 -0.414551,  0.056152,  0.927246,1478626982.923
 -0.140625, -0.217773,  1.219727,1478626982.945
 -0.161621, -0.023438,  0.914063,1478626982.960
 -0.174316,  0.154785,  0.870117,1478626982.983
 -0.197754,  0.225098,  0.956543,1478626983.005
 -0.222656,  0.030273,  0.832031,1478626983.020
 -0.206055, -0.075684,  0.840820,1478626983.042
 -0.191895, -0.102051,  0.856445,1478626983.072
 -0.192383, -0.096191,  0.963867,1478626983.087
 -0.144043, -0.147949,  1.015625,1478626983.110
 -0.235352, -0.062500,  1.045898,1478626983.125
 -0.064453, -0.049805,  0.945313,1478626983.140
 -0.068848, -0.093750,  0.995117,1478626983.162
 -0.083984, -0.138672,  1.021973,1478626983.185
 -0.171387, -0.155273,  1.028320,1478626983.200
  0.036621, -0.109375,  0.831543,1478626983.222
 -0.127930,  0.066895,  0.961914,1478626983.245
 -0.227539,  0.011230,  0.954102,1478626983.260
 -0.306152, -0.103516,  0.918945,1478626983.284
 -0.174805, -0.113770,  0.922852,1478626983.305
 -0.053711, -0.122070,  0.932617,1478626983.320
 -0.093750, -0.087402,  0.945801,1478626983.350
 -0.166016, -0.081543,  0.970215,1478626983.365
 -0.206543, -0.046875,  0.997070,1478626983.388
 -0.165527,  0.005371,  0.972168,1478626983.403
 -0.222168,  0.086426,  0.925781,1478626983.425
 -0.082520, -0.043945,  1.010254,1478626983.440
 -0.072266, -0.230957,  0.934570,1478626983.463
 -0.047363, -0.109863,  0.886230,1478626983.485
 -0.004883,  0.006836,  0.931152,1478626983.500
  0.040527, -0.005859,  0.991699,1478626983.537
  0.029297, -0.074707,  0.959961,1478626983.545
 -0.052246,  0.007324,  1.020508,1478626983.560
 -0.122070,  0.101563,  1.081055,1478626983.582
 -0.077148,  0.122070,  0.884766,1478626983.605
 -0.084961,  0.109375,  0.917969,1478626983.627
 -0.117676,  0.080078,  0.885742,1478626983.642
 -0.186523,  0.005859,  0.865723,1478626983.666
 -0.208984, -0.062988,  0.901367,1478626983.680
 -0.234863, -0.077148,  0.962891,1478626983.702
 -0.184570, -0.020996,  1.061035,1478626983.725
 -0.181641,  0.074219,  0.961426,1478626983.740
 -0.184082,  0.159180,  0.923340,1478626983.770
 -0.102051,  0.105469,  0.938477,1478626983.785
 -0.121094, -0.083984,  0.999023,1478626983.815
 -0.098633, -0.140137,  0.940430,1478626983.838
 -0.092285, -0.119141,  0.899902,1478626983.853
 -0.064453, -0.068359,  0.984375,1478626983.876
 -0.109863, -0.032227,  1.016602,1478626983.890
 -0.172852, -0.017578,  0.950195,1478626983.913
 -0.186523, -0.046875,  0.964844,1478626983.943
 -0.062012, -0.034668,  0.898438,1478626983.958
 -0.102539,  0.031738,  0.953613,1478626983.980
 -0.184570, -0.034668,  0.932129,1478626983.995
 -0.222656, -0.071777,  0.972656,1478626984.010
 -0.152344, -0.065430,  0.952148,1478626984.025
 -0.070801, -0.005371,  0.958008,1478626984.048
 -0.093262,  0.021973,  0.981934,1478626984.062
 -0.135742,  0.016113,  0.946777,1478626984.092
 -0.139160, -0.011230,  0.922363,1478626984.115
 -0.115234, -0.042480,  0.955078,1478626984.122
 -0.118652, -0.031738,  0.956055,1478626984.137
 -0.167969, -0.013184,  0.961914,1478626984.160
 -0.161621, -0.004395,  0.951172,1478626984.183
 -0.137695, -0.001953,  0.937988,1478626984.198
 -0.106445, -0.026367,  0.951172,1478626984.220
 -0.112793, -0.043457,  0.960938,1478626984.242
 -0.146484, -0.020020,  0.949707,1478626984.257
 -0.152344, -0.017090,  0.954590,1478626984.287
 -0.130859, -0.038086,  0.964355,1478626984.303
 -0.130371, -0.026855,  0.933594,1478626984.325
 -0.126953, -0.000977,  0.933105,1478626984.348
 -0.144043, -0.000977,  0.965332,1478626984.370
 -0.155762, -0.020020,  0.952637,1478626984.378
 -0.137207, -0.033691,  0.952148,1478626984.400
 -0.130859, -0.041016,  0.966797,1478626984.423
 -0.166992, -0.028809,  0.958984,1478626984.438
 -0.120117, -0.057617,  0.958008,1478626984.460
 -0.118652, -0.014648,  0.897949,1478626984.483
 -0.163574,  0.100098,  0.929688,1478626984.498
 -0.171875,  0.051270,  0.943359,1478626984.521
 -0.130859, -0.046875,  1.004883,1478626984.542
 -0.114746, -0.050293,  0.952637,1478626984.565
