    3.6875,    0.3750,   -1.6250,1478626638.277
   -6.1250,    2.1250,   -0.9375,1478626638.294
  -15.8125,    3.3750,    0.5000,1478626638.314
  -17.3750,    2.4375,    0.6250,1478626638.339
   -7.2500,    2.0000,    1.0625,1478626638.354
   -0.8125,    1.1875,    1.3125,1478626638.374
    2.5625,    0.4375,   -0.3750,1478626638.396
    1.6875,   -0.7500,    0.6875,1478626638.444
    2.7500,   -1.9375,   -1.3125,1478626638.445
    4.5000,   -2.9375,   -0.8125,1478626638.458
    2.5000,   -3.7500,   -0.4375,1478626638.473
    2.3750,   -3.2500,   -1.2500,1478626638.496
    2.7500,   -3.1250,   -1.3750,1478626638.517
    1.4375,   -2.0000,   -1.3750,1478626638.554
   -4.0625,   -2.0000,   -0.5000,1478626638.564
   -4.1875,   -2.0000,   -1.6250,1478626638.577
   -2.0625,   -0.8750,   -0.7500,1478626638.592
   -1.3750,   -1.5625,   -0.5625,1478626638.614
    1.2500,   -2.0625,   -0.6875,1478626638.638
    3.1875,   -1.7500,   -0.1875,1478626638.652
    1.8750,   -1.6875,   -0.8125,1478626638.674
    0.8125,   -1.7500,   -1.1250,1478626638.697
    2.5000,   -1.0625,   -0.9375,1478626638.712
    3.4375,   -0.6875,   -0.5000,1478626638.734
    0.5000,    0.4375,    0.6875,1478626638.757
   -4.5000,    0.4375,    0.9375,1478626638.772
   -8.0000,   -0.1250,    0.5000,1478626638.794
   -4.5625,   -0.5000,   -0.4375,1478626638.817
    4.7500,   -1.7500,   -1.4375,1478626638.832
   11.0000,   -2.1875,   -1.7500,1478626638.854
    9.2500,   -2.3750,   -1.6875,1478626638.870
    5.3750,   -2.8750,   -2.0625,1478626638.892
    1.7500,   -3.5625,   -2.3750,1478626638.914
   -1.7500,   -4.1250,   -1.9375,1478626638.930
   -2.3750,   -4.0625,   -2.1250,1478626638.952
   -4.3750,   -3.7500,   -2.1250,1478626638.974
   -4.1250,   -3.6875,   -1.9375,1478626638.990
   -2.9375,   -3.2500,   -1.6875,1478626639.012
   -1.5000,   -3.2500,   -1.1875,1478626639.034
    2.1250,   -2.6875,   -1.3125,1478626639.050
    5.4375,   -2.1250,   -0.5625,1478626639.072
    5.7500,   -1.7500,   -0.1250,1478626639.094
    4.5625,   -1.7500,    0.3125,1478626639.110
    1.8125,   -1.7500,    0.4375,1478626639.132
    0.0625,   -1.5000,    0.8125,1478626639.154
   -0.8125,   -1.0625,    1.1250,1478626639.179
    0.5625,   -1.2500,    1.5625,1478626639.199
    1.5000,   -1.2500,    1.2500,1478626639.222
    1.0625,   -1.4375,    1.4375,1478626639.230
    1.5000,   -1.0625,    1.3750,1478626639.251
    0.8125,   -0.5000,    1.2500,1478626639.275
   -0.6875,   -0.4375,    1.3125,1478626639.290
   -0.8125,   -1.3125,    1.0625,1478626639.311
   -2.5000,   -0.6250,    1.3125,1478626639.334
   -3.3750,   -0.6250,    0.0000,1478626639.350
   -3.2500,   -1.2500,    0.0625,1478626639.372
   -2.5000,   -1.5625,   -0.1250,1478626639.394
    2.2500,   -1.9375,   -1.3750,1478626639.410
    8.1875,   -1.6875,   -1.4375,1478626639.431
    7.0625,   -1.3125,   -0.8750,1478626639.454
    4.8750,   -1.5000,   -0.3125,1478626639.470
    5.0000,   -0.1875,    0.0000,1478626639.500
    2.1250,    0.5000,    0.3125,1478626639.514
   -1.8750,    0.1250,    1.6875,1478626639.530
   -4.8750,    1.6875,   -0.8750,1478626639.552
   -4.0625,    1.8750,   -0.4375,1478626639.575
   -0.8125,    2.1250,    1.6875,1478626639.590
   -0.5000,    0.0000,    0.5625,1478626639.613
    1.4375,   -0.4375,    0.3125,1478626639.636
    1.6250,   -1.9375,   -0.6875,1478626639.650
    2.8125,   -2.1250,   -1.1875,1478626639.673
    3.5625,   -2.1875,   -1.2500,1478626639.696
    3.6250,   -1.8750,   -1.8750,1478626639.710
    4.3125,   -2.0625,   -1.9375,1478626639.733
    2.5000,   -1.8125,   -1.8750,1478626639.756
    2.0625,   -1.3125,   -1.5625,1478626639.779
    1.8125,   -0.0625,   -1.1250,1478626639.793
   -0.6875,    1.0625,   -0.8750,1478626639.816
   -1.1250,    1.2500,   -0.0625,1478626639.838
   -2.0625,    0.5625,    0.3750,1478626639.852
    1.6250,    1.1250,   -0.5000,1478626639.883
    2.6875,    1.1875,   -0.3750,1478626639.898
    1.5000,    1.5000,   -0.6250,1478626639.912
    2.4375,    0.9375,   -0.6875,1478626639.935
    2.6875,    0.5625,   -0.6875,1478626639.957
   -0.6875,    0.0000,   -0.5625,1478626639.972
   -4.7500,   -0.8125,   -0.6875,1478626639.995
   -3.5625,   -1.6250,   -1.4375,1478626640.017
   -0.9375,   -2.1875,   -1.3125,1478626640.033
    0.1875,   -1.9375,   -1.6875,1478626640.055
    0.3125,   -1.7500,   -2.0625,1478626640.077
    1.0625,   -2.1250,   -1.5000,1478626640.092
    2.2500,   -1.4375,   -1.4375,1478626640.116
    2.2500,   -0.8750,   -0.6250,1478626640.145
    1.2500,   -0.2500,   -0.8750,1478626640.161
    1.5000,   -0.2500,   -0.7500,1478626640.175
    2.9375,   -0.1875,   -0.3125,1478626640.197
    2.4375,    0.1250,   -0.4375,1478626640.213
    1.3125,   -0.0625,   -0.3125,1478626640.235
 1053.3750,  113.5625,  -23.1250,1478626643.711
  680.3125,  209.8125,  192.1250,1478626643.717
  130.4375,  -20.3125,   55.8750,1478626643.724
 -308.7500,  -27.3125, -160.8750,1478626643.746
 -564.5000,  -35.5000,  -26.3125,1478626643.769
 -293.2500,  -14.8750,   -1.4375,1478626643.786
   68.7500,  -76.4375,   15.7500,1478626643.807
  717.4375,   -9.0625,  -54.9375,1478626643.837
  689.8125,   84.0000,   57.7500,1478626643.845
  393.6875,  111.3750,  115.5000,1478626643.867
  -83.4375,  -45.6250,  -22.0625,1478626643.888
 -757.7500,  -49.6250, -151.4375,1478626643.905
 -767.3750,    6.8750,  -43.1250,1478626643.926
 -209.3750,  -49.4375,   20.3750,1478626643.948
  306.9375,  -59.2500,   39.8750,1478626643.963
  799.1875,  -58.4375,  -60.5625,1478626643.986
  855.5000,   55.0625,   43.1875,1478626644.008
  637.6875,  150.8125,  101.4375,1478626644.023
  265.6250,  -45.8750,   19.6875,1478626644.056
 -530.2500,  -63.6875,  -95.8750,1478626644.068
 -945.7500,    9.8750,  -98.5625,1478626644.085
 -615.2500,    4.9375,  -13.6875,1478626644.115
  150.3750,  -90.7500,   73.8750,1478626644.137
  631.0000,  -82.8750,  -14.1875,1478626644.152
  898.8750,   57.3750,  -25.7500,1478626644.173
  835.6250,  152.3750,  125.1250,1478626644.196
  486.6875,   -1.5000,   66.6250,1478626644.218
 -267.1875,  -22.6875,  -36.1250,1478626644.234
 -877.9375,  -38.4375,  -62.1875,1478626644.257
 -882.4375,   16.0000,  -87.2500,1478626644.279
 -241.7500,  -16.6250,   67.5000,1478626644.310
  460.1250,  -75.6875,   34.8750,1478626644.325
  877.2500,  -39.6250,  -77.4375,1478626644.327
  907.6250,   63.8750,   72.9375,1478626644.347
  731.9375,  123.9375,   75.5000,1478626644.370
  132.1875,   -5.0625,  -12.3750,1478626644.392
 -619.8125,  -68.3125,   16.6875,1478626644.415
 -926.6875,  -25.4375,  -86.0625,1478626644.429
 -963.2500,   83.1875, -215.0625,1478626644.452
 -277.7500,  -65.8750,   19.6875,1478626644.475
  559.8125,  -65.8125,  153.0625,1478626644.497
 1034.1875, -133.5625,   10.3125,1478626644.520
 1067.5000,  -42.0625,  -22.4375,1478626644.542
  735.5625,  141.0625,   -2.0000,1478626644.563
  294.8750,   84.6250,  -58.7500,1478626644.586
 -281.7500,   18.1875,   -2.0625,1478626644.587
 -561.0000,  -11.8125,  -23.6250,1478626644.608
 -881.8750,  -51.1250,  -96.6250,1478626644.631
 -939.7500,  -27.8125,  -79.3125,1478626644.653
 -961.5000,    4.3750,  -62.5000,1478626644.676
 -296.1250, -112.3750,   52.2500,1478626644.692
  152.6875,   21.1875,   53.3125,1478626644.715
  694.5000,   57.2500,    6.7500,1478626644.743
  879.6250,   44.1875,   -6.1875,1478626644.768
  924.8125,   28.5625,  138.0000,1478626644.769
  665.6875,  -29.8750,   53.5000,1478626644.797
  306.7500,   -7.6875,  -21.8750,1478626644.820
 -161.8125,   65.1250,   13.1875,1478626644.849
 -447.6250,  103.3125,  -19.3750,1478626644.873
 -732.0625,    0.8125,  -66.5625,1478626644.874
 -861.8125,  -63.9375,  -81.6875,1478626644.894
 -787.1875,  -31.4375, -153.0625,1478626644.925
 -808.9375,   13.0000,  -80.8125,1478626644.931
 -227.5625,  -73.1875,   51.6875,1478626644.979
  272.3125,   11.1250,   32.7500,1478626644.991
  533.1875,   49.5625,   55.1875,1478626645.001
  837.8125,   48.6250,   84.9375,1478626645.030
  988.9375,   -3.5625,   91.2500,1478626645.031
  967.9375,  -56.1875,   74.1875,1478626645.047
  706.1875,  -61.1875,   50.6875,1478626645.067
  210.1250,  -20.6250,   42.5000,1478626645.090
 -337.0000,   71.8750,  -49.1875,1478626645.111
 -735.7500,   49.8750, -104.5000,1478626645.127
 -861.6250,   -9.3750, -102.2500,1478626645.150
 -806.6250,  -27.0625,  -81.4375,1478626645.172
 -673.3125,    3.6250,  -91.6875,1478626645.203
 -276.0000,   21.5000,    9.2500,1478626645.233
  274.2500,  -25.5625,   72.1875,1478626645.245
  670.5625,  -14.9375,    7.8125,1478626645.260
  849.2500,    7.5000,   24.0625,1478626645.284
  827.1875,   -5.0625,   57.0625,1478626645.299
  587.3750,  -24.5625,   41.5000,1478626645.323
  214.3125,  -12.3750,   54.8750,1478626645.324
 -101.3750,    6.2500,   20.3125,1478626645.345
 -195.7500,  -10.5000,    0.1250,1478626645.367
 -157.2500,  -25.9375,   -5.1250,1478626645.390
  -79.3750,   -5.5625,    3.1875,1478626645.411
    7.3125,   11.1875,    6.3125,1478626645.427
   56.1875,    6.1250,    4.6250,1478626645.450
   47.2500,    7.4375,    5.6875,1478626645.466
    3.0000,   11.6250,    7.8750,1478626645.487
  -43.8125,    9.8125,    9.0000,1478626645.502
  -57.3750,    5.1875,   13.6875,1478626645.524
  -58.6250,   13.0625,    7.0625,1478626645.545
  -78.6875,   20.3125,   -1.5625,1478626645.561
 -130.4375,   21.9375,   -6.6250,1478626645.582
 -210.9375,   34.2500,  -28.6250,1478626645.605
 -294.4375,   40.8750,  -51.1875,1478626645.622
 -387.9375,   50.5000,  -69.0000,1478626645.643
 -428.6875,   49.5000,  -74.3125,1478626645.665
 -389.7500,   50.0000,  -70.8750,1478626645.682
 -263.8750,   63.6250,  -61.8125,1478626645.703
 -100.6875,   77.9375,  -59.5625,1478626645.725
   38.9375,   84.0000,  -59.3750,1478626645.742
   93.8750,   90.2500,  -67.6250,1478626645.763
   56.6250,   95.4375,  -69.0000,1478626645.785
  -40.0000,  104.3125,  -84.3750,1478626645.802
 -115.0625,  104.8750,  -80.6250,1478626645.824
 -119.5000,  109.6250,  -66.4375,1478626645.845
  -52.8750,  111.9375,  -60.9375,1478626645.862
   36.5625,   99.6250,  -40.8125,1478626645.884
   81.0000,   94.6875,  -26.8750,1478626645.905
   67.8750,   93.4375,  -16.8750,1478626645.921
   15.7500,   86.2500,   -9.5625,1478626645.944
  -33.8125,   79.8125,   -9.0625,1478626645.973
  -37.8125,   73.3125,   -6.9375,1478626645.981
  -12.2500,   63.9375,   -2.0625,1478626646.004
   18.2500,   51.0000,   -3.0000,1478626646.025
   17.9375,   38.1875,   -8.1250,1478626646.041
    7.1250,   34.2500,  -11.3125,1478626646.080
 -344.0625, -120.0000,  -21.6875,1478626646.109
 -290.5625,   72.7500,  -87.8125,1478626646.112
 -346.8125,   57.2500,   -2.1250,1478626646.124
 -293.0000,   -0.5000,   -7.1875,1478626646.145
 -217.6875,  -23.5625,    0.1250,1478626646.162
 -210.6875,    5.9375,  -14.0000,1478626646.184
 -174.4375,    0.2500,  -30.8125,1478626646.205
  -91.4375,    8.4375,   56.8750,1478626646.222
  -99.1250,   -0.5625,   11.8750,1478626646.244
  -80.9375,    0.8125,   -9.8750,1478626646.282
 -147.1875,   11.8125,  -14.1875,1478626646.284
 -176.1250,  -15.1875,   20.6875,1478626646.313
 -168.8750,  -14.8750,   38.2500,1478626646.335
 -192.8125,    5.1875,  -19.3750,1478626646.357
 -227.3750,    4.8125,    5.3750,1478626646.364
 -157.9375,   22.1250,  -30.4375,1478626646.385
 -102.2500,   -1.8750,   11.6875,1478626646.401
  -89.7500,    6.9375,   18.9375,1478626646.423
 -125.6875,   16.2500,   20.4375,1478626646.446
 -142.8125,   -7.8750,    9.3750,1478626646.468
 -142.8750,   -9.8750,  -24.3750,1478626646.483
 -138.3125,  -13.5000,    6.7500,1478626646.506
 -138.2500,    5.8750,   22.8125,1478626646.521
 -115.5000,  -10.7500,    4.0000,1478626646.543
  -71.6875,  -19.6875,   -3.8125,1478626646.566
  -42.1875,   -9.7500,  -10.8750,1478626646.581
  -11.9375,   -7.0625,   -1.1875,1478626646.611
   15.8125,   -1.4375,   -5.1250,1478626646.634
   43.0000,    9.5000,   -7.5625,1478626646.640
   59.7500,   -0.4375,  -15.5000,1478626646.663
   90.6250,   17.8125,    7.1250,1478626646.688
   66.0000,   13.2500,   -7.6875,1478626646.701
   66.1875,   21.6250,    8.6250,1478626646.723
   38.0000,   14.8750,    2.1250,1478626646.746
   43.4375,   24.5000,   16.6250,1478626646.761
   93.8750,   19.3750,   57.1250,1478626646.783
   52.5625,   -0.2500,  -26.7500,1478626646.806
   -5.4375,   -4.9375,  -26.6250,1478626646.821
  -49.1875,   -6.1250,  -16.5000,1478626646.843
  -70.2500,   -5.6875,  -35.1250,1478626646.866
  -72.5000,    1.1250,  -30.8125,1478626646.888
 -112.6875,  -23.1875,  -94.2500,1478626646.911
  -80.8125,    8.8125,    0.9375,1478626646.926
 -146.1875,   -0.6250,  -42.8750,1478626646.942
 -177.4375,    6.8750,  -14.4375,1478626646.963
  -78.1250,   23.4375,   23.3125,1478626646.986
  -73.1250,   26.4375,   -7.9375,1478626647.001
 -101.9375,   14.1875,  -27.6250,1478626647.023
 -149.3750,    7.0000,   59.8125,1478626647.037
 -108.8750,    6.4375,   53.5625,1478626647.061
 -184.3750,   30.3125,   30.1875,1478626647.084
 -146.5625,   34.3125,   29.0625,1478626647.106
  -82.1250,   18.7500,  -28.9375,1478626647.129
  -93.8750,    9.0000,   -0.4375,1478626647.152
  -85.0625,    5.1250,   -2.4375,1478626647.173
  -36.6875,    6.6875,  -15.6250,1478626647.190
  -17.1250,    6.0000,  -24.7500,1478626647.211
  -15.5625,    2.3750,  -15.5625,1478626647.219
   -4.3750,    0.6875,  -26.0000,1478626647.242
   -1.4375,   -0.5000,  -23.5625,1478626647.263
    2.4375,    0.3750,  -23.2500,1478626647.279
    2.2500,   -3.5625,  -14.2500,1478626647.302
    9.5625,   -0.5000,  -10.9375,1478626647.323
   16.7500,    0.4375,   -6.0000,1478626647.339
  111.9375,  -12.5625,   66.7500,1478626647.370
   88.1250,    9.6250,   15.8750,1478626647.385
   43.7500,   -1.3750,    9.8125,1478626647.407
    8.4375,   -5.5625,    2.3125,1478626647.428
   -0.0625,   -7.4375,  -12.7500,1478626647.452
    0.2500,  -10.9375,  -18.7500,1478626647.476
   15.4375,  -15.3125,  -21.9375,1478626647.481
   74.5000,  -18.0000,  -17.5625,1478626647.504
   59.6250,  -19.7500,   -8.6875,1478626647.519
   32.4375,  -22.2500,   -9.8125,1478626647.542
   41.3750,  -18.0000,  -10.8125,1478626647.564
   35.8750,  -24.6875,   -2.1250,1478626647.587
   28.5625,  -22.7500,    0.7500,1478626647.601
   47.0625,  -22.2500,   -3.7500,1478626647.623
   35.1250,  -20.9375,    5.9375,1478626647.639
   24.4375,  -25.6875,   -5.6250,1478626647.660
   28.8750,  -17.0625,  -13.3750,1478626647.683
   -8.9375,  -25.6875,  -10.6250,1478626647.699
   -1.6875,  -29.0625,  -14.0625,1478626647.721
  -11.6250,  -42.1250,  -17.8125,1478626647.744
  -17.1250,  -51.5625,  -12.8750,1478626647.759
  -15.6875,  -53.6875,    1.5000,1478626647.780
   -0.8750,  -56.0000,   -1.0000,1478626647.803
  -30.6250,  -57.5625,    8.0625,1478626647.819
  -39.5000,  -47.5000,   12.8125,1478626647.840
  -30.6250,  -43.9375,    4.2500,1478626647.863
  -39.5625,  -36.8750,    9.8125,1478626647.879
  -55.3125,  -36.8125,   10.7500,1478626647.900
  -47.1250,  -46.7500,    4.5000,1478626647.923
  -44.4375,  -52.1250,    0.1250,1478626647.939
  -49.0000,  -68.2500,  -10.6250,1478626647.960
  -47.2500,  -71.4375,   -8.6875,1478626647.983
  -41.3750,  -62.1250,   -7.6250,1478626647.999
  -30.8750,  -49.4375,  -28.0000,1478626648.028
   -3.1875,  -31.4375,  -44.5000,1478626648.052
   20.6250,   -6.1875,  -31.8125,1478626648.074
   14.6250,   16.3750,  -16.9375,1478626648.080
   -1.1250,   16.3125,   -8.8750,1478626648.103
  -11.0625,   24.3750,   -4.3125,1478626648.119
  -23.3750,   22.5625,   -0.3750,1478626648.140
  -19.0000,   16.9375,   -0.5625,1478626648.164
  -11.6875,    9.4375,   -2.8750,1478626648.179
   -2.6250,    7.6875,   -7.9375,1478626648.200
   -0.7500,   11.3750,   -7.5625,1478626648.223
    2.8750,   17.6875,   -8.0625,1478626648.239
   10.6875,   18.8125,   -9.6250,1478626648.260
   19.4375,   16.8750,  -11.5000,1478626648.283
   21.8750,   18.4375,  -14.1250,1478626648.299
   15.6250,   16.7500,  -15.1875,1478626648.328
    7.0625,   17.6250,  -16.6875,1478626648.352
   14.5000,   11.8750,  -16.5625,1478626648.366
    8.5625,    8.6875,  -15.7500,1478626648.382
  -35.8125,    6.6875,   -9.6875,1478626648.405
 -133.0000,    6.1875,  -22.4375,1478626648.426
 -167.1250,  -31.6875,  -32.0000,1478626648.442
   19.9375,  -61.5000,  -76.9375,1478626648.465
  231.5625,   -3.0625,   68.8125,1478626648.485
  276.0625,   26.4375,   11.2500,1478626648.501
   -3.6250,   21.5625,   66.6875,1478626648.525
  -44.0000,  -45.5000,   -9.6250,1478626648.554
  -50.7500,   43.8750,  -20.3750,1478626648.561
  -28.5625,   28.3750,  -17.5000,1478626648.584
    5.7500,   18.6250,   -2.8125,1478626648.606
  -11.6875,    1.0000,  -10.5625,1478626648.621
  -55.2500,  -15.2500,  -13.9375,1478626648.644
 -105.0000,  -14.9375,   -6.0000,1478626648.665
 -104.3125,  -28.0000,   12.1250,1478626648.681
  -31.2500,  -20.4375,   21.1875,1478626648.704
   63.0625,   11.3125,    9.5625,1478626648.727
  -12.8125,   10.5625,  -20.8750,1478626648.741
  -38.0000,    1.2500,   -9.4375,1478626648.764
 -110.9375,  -14.9375,   16.8125,1478626648.787
  -74.1250,  -52.7500,   22.4375,1478626648.802
  -16.1875,  -42.2500,   15.3125,1478626648.832
   25.7500,  -38.1875,   -3.5625,1478626648.855
   -7.6250,   -3.6875,   -1.0625,1478626648.862
  -23.3125,   32.6250,    7.3125,1478626648.884
  -17.9375,   41.2500,  -11.1875,1478626648.908
  -32.1875,   27.1875,  -12.1250,1478626648.922
  -24.3750,    7.8750,   -3.5625,1478626648.944
   12.7500,   -8.4375,  -13.3750,1478626648.967
   11.7500,  -12.5000,  -13.8125,1478626648.980
    4.5625,   -8.3750,  -14.1875,1478626649.003
   -5.6875,    4.8750,  -13.1250,1478626649.017
   -7.0000,    8.2500,  -11.5625,1478626649.049
   -1.6875,   -1.5000,   -1.0000,1478626649.055
   27.7500,  -18.9375,   14.8750,1478626649.078
   88.3125,  -22.6875,   25.3125,1478626649.109
  152.0625,  -30.8125,   18.3125,1478626649.115
   22.3125,    9.2500,    6.5000,1478626649.137
 -117.0625,   26.6250,   -5.7500,1478626649.161
  -98.3125,  -14.5625,    1.4375,1478626649.175
 -139.8125,  -52.5000,  -12.9375,1478626649.197
 -145.2500,  -26.4375,   14.1250,1478626649.221
  -70.9375,  -12.6250,   -5.0000,1478626649.235
  -40.6875,    7.5625,    5.0625,1478626649.258
  -24.3125,   16.6250,    6.8125,1478626649.280
   -8.4375,   17.5625,   -2.3125,1478626649.295
    7.5625,   15.1250,  -15.2500,1478626649.318
   17.4375,   16.5625,  -17.2500,1478626649.341
   11.6875,   16.0000,  -14.8125,1478626649.355
   16.7500,   15.5000,   -9.8750,1478626649.386
   20.5000,   15.8125,   -3.0625,1478626649.409
    8.8125,   14.0625,    2.1250,1478626649.415
  -50.8750,   15.1875,    8.0625,1478626649.438
 -181.5625,   15.3125,    8.0625,1478626649.461
 -191.0000,  -17.3125,    5.7500,1478626649.475
   -6.6250,  -64.8750,  -94.0000,1478626649.498
  183.5000,  -16.7500, -108.3750,1478626649.521
  182.5625,  -13.2500,  -23.3125,1478626649.535
  103.2500,  -13.8750,  -13.1875,1478626649.558
   19.8750,   -3.2500,  -25.3125,1478626649.581
  -78.8750,   44.8125,  -18.1250,1478626649.603
  -35.0000,   60.9375,  -22.0000,1478626649.618
   72.2500,   56.5000,  -14.0000,1478626649.641
  159.3125,   33.1250,    0.0625,1478626649.663
  156.3125,   -2.2500,   -9.7500,1478626649.686
   82.1875,  -24.1875,  -16.3750,1478626649.701
   -4.9375,  -20.0000,    0.9375,1478626649.715
  -53.3125,  -21.7500,   12.5000,1478626649.738
  -84.4375,  -25.3750,   20.5625,1478626649.760
  -65.2500,  -16.1875,   21.0000,1478626649.775
  -70.3750,   -7.1250,   19.5625,1478626649.798
  -80.2500,    0.6875,   14.1875,1478626649.820
  -47.2500,   16.4375,    1.1875,1478626649.835
   -9.5625,   30.4375,    0.9375,1478626649.858
  -34.6250,   26.7500,    3.8750,1478626649.881
 -151.5625,    1.0625,  -12.3750,1478626649.895
 -111.1875,   -3.2500,   -4.0625,1478626649.918
  204.3125,  -22.2500,  -69.1875,1478626649.942
   86.8750,   -8.0625,   12.5625,1478626649.963
   46.1250,  -15.6250,  -52.4375,1478626649.979
   54.3125,   42.0625,  -29.1875,1478626650.001
   60.1250,    7.5000,  -11.7500,1478626650.015
  -50.8125,  -11.5625,   25.1875,1478626650.038
 -119.1250,  -29.6875,   40.1875,1478626650.061
  -75.0000,  -29.0625,   60.0625,1478626650.075
  -43.6250,  -12.0625,   55.8750,1478626650.098
    1.7500,   15.2500,   23.3750,1478626650.121
   45.0625,   34.3750,   -9.6250,1478626650.135
   55.2500,   50.6250,  -36.6250,1478626650.158
   30.5000,   60.8750,  -51.3750,1478626650.181
  -13.6875,   48.3125,  -50.8125,1478626650.195
 -158.0625,   31.9375,  -30.6875,1478626650.219
  -67.2500,  -19.5000,  -28.2500,1478626650.242
  247.6875,    9.4375,  -90.5000,1478626650.255
   50.4375,  -26.0625,   53.5000,1478626650.277
   70.3125,  -48.8125,  -64.6875,1478626650.300
  -25.5000,   35.3750,   21.7500,1478626650.315
  113.8125,  -22.7500,   15.3750,1478626650.337
   -1.0625,  -28.1875,  114.0000,1478626650.360
  -84.1250,  -50.3750,   61.8750,1478626650.375
 -148.4375,  -75.8750,   63.3125,1478626650.399
 -104.5000,  -77.1875,   54.0625,1478626650.429
  -64.9375,  -48.3125,   42.3125,1478626650.435
  -27.1875,  -10.0000,   13.4375,1478626650.466
  -14.8750,   19.1875,   -4.8750,1478626650.497
    8.7500,   45.3125,  -24.1875,1478626650.499
   41.4375,   66.9375,  -41.1875,1478626650.521
   77.5000,   86.3125,  -57.1875,1478626650.543
   86.6875,   85.0625,  -59.1250,1478626650.558
  -37.5000,   52.6250,  -58.5625,1478626650.577
 -147.4375,    9.1250,  -24.1875,1478626650.600
  231.0625,  -30.5000, -104.9375,1478626650.616
   94.7500,  -57.4375,    0.8125,1478626650.637
 -144.5000,  -90.3125,   31.1250,1478626650.660
   25.6250,  -32.6250,   40.6875,1478626650.676
  -31.0625,   35.2500,   32.6875,1478626650.698
  123.2500,   23.1250,   62.8125,1478626650.720
   27.6875,  -22.5625,   64.3125,1478626650.736
  -42.6250,  -62.6250,   35.1250,1478626650.774
 -112.9375,  -61.9375,   38.8750,1478626650.780
 -106.1250,  -54.2500,   34.9375,1478626650.798
  -41.9375,  -16.5000,   15.3750,1478626650.820
   -9.0625,   28.1250,   -2.4375,1478626650.840
   20.4375,   55.8750,  -13.5000,1478626650.862
   58.9375,   77.4375,  -33.2500,1478626650.886
   98.6875,   88.2500,  -55.3125,1478626650.901
  116.9375,   89.7500,  -66.3750,1478626650.917
   98.5000,   76.8125,  -62.8125,1478626650.938
  -62.9375,   57.3750,  -84.2500,1478626650.961
  -83.8125,  -43.2500,  -25.0625,1478626650.977
  232.7500,  -37.8125,  -47.0625,1478626650.999
 -221.0000,  -95.8750,   43.5000,1478626651.022
  126.4375, -109.7500,    2.2500,1478626651.036
  -60.5625,   95.6250,   53.5625,1478626651.058
  143.3125,   13.4375,   -2.5625,1478626651.081
   47.7500,   -9.7500,   69.1875,1478626651.096
 -102.8750,  -67.0625,   42.5000,1478626651.117
 -162.6250,  -87.0000,   68.5000,1478626651.134
 -133.1250,  -81.3125,   81.6875,1478626651.165
  -62.4375,  -34.9375,   55.3125,1478626651.186
  -28.9375,   -1.9375,   27.3750,1478626651.194
    3.0000,   20.5000,   -0.3750,1478626651.216
   30.1875,   35.7500,  -24.6875,1478626651.238
   62.0000,   47.4375,  -41.6250,1478626651.255
   90.1875,   63.3750,  -61.6250,1478626651.276
  110.0625,   78.5000,  -69.9375,1478626651.297
   87.6250,   81.7500,  -61.3125,1478626651.314
   15.4375,   45.6250,  -67.1875,1478626651.351
  -78.4375,    1.0000,  -12.6875,1478626651.365
  208.3750,  -58.1875,  -47.4375,1478626651.374
 -181.5000,  -92.6250,   53.0625,1478626651.396
  107.3125,  -85.1875,  -19.5625,1478626651.418
    5.0000,   64.6875,   78.9375,1478626651.434
    5.7500,  -22.3125,   88.5000,1478626651.457
  -41.8125,  -51.4375,   50.0000,1478626651.478
 -137.8750,  -69.5000,   79.8750,1478626651.494
 -129.5000,  -96.6250,   92.8125,1478626651.516
  -66.8125,  -65.2500,   66.9375,1478626651.539
  -33.9375,  -28.4375,   43.0625,1478626651.552
  -15.3125,   -4.3750,   17.6250,1478626651.576
    0.7500,   11.7500,   -9.0625,1478626651.607
   31.0000,   27.3750,  -31.0625,1478626651.629
   66.7500,   52.6250,  -56.1875,1478626651.636
  100.9375,   81.5625,  -77.6250,1478626651.658
  104.6875,   98.0625,  -87.1250,1478626651.673
  103.6875,   86.9375,  -89.6875,1478626651.696
   64.2500,   61.2500, -140.6250,1478626651.718
  117.5625,  -50.2500, -105.0000,1478626651.733
  249.7500,    6.1250,  -83.9375,1478626651.755
 -156.8750,  -99.0625,   68.8125,1478626651.778
  -21.0000,  -74.9375,   77.8125,1478626651.793
  -41.3125,   88.2500,   43.6250,1478626651.815
  130.5625,   23.9375,  -17.8125,1478626651.838
   40.0625,   16.8125,   56.7500,1478626651.853
  -74.1875,  -41.8750,   46.6875,1478626651.884
 -109.3125,  -52.8750,   74.3750,1478626651.905
 -137.1875,  -51.0000,   80.5000,1478626651.914
 -127.6875,  -41.7500,   65.5000,1478626651.937
 -102.6250,  -14.7500,   34.7500,1478626651.958
    6.3750,   32.8750,  -14.5625,1478626651.975
   62.9375,   82.6875,  -52.2500,1478626651.997
  106.5625,  103.3125,  -65.0625,1478626652.018
  124.8125,   91.5000,  -88.8750,1478626652.035
  127.0625,   59.2500,  -83.6875,1478626652.056
   33.0625,   22.8750,  -64.0625,1478626652.080
   88.0625,  -87.2500,  -79.2500,1478626652.095
  183.8125,  -72.0000,  -22.5000,1478626652.116
 -130.5625, -105.7500,   82.8125,1478626652.138
  -83.7500,  -59.5625,   21.1875,1478626652.161
  -83.5625,    4.6250,   30.3750,1478626652.183
   23.9375,   25.1875,   63.7500,1478626652.198
  -22.8750,   12.0000,   47.6875,1478626652.214
  -71.1250,  -19.5000,   30.7500,1478626652.236
  -79.3125,  -44.4375,   26.5000,1478626652.258
  -48.3125,  -37.0000,    9.4375,1478626652.274
   -9.4375,  -20.2500,  -13.8750,1478626652.295
   18.6250,   11.8125,  -44.3125,1478626652.320
    5.1250,   40.8125,  -45.6250,1478626652.340
  -89.8750,   92.2500,  -62.3125,1478626652.356
 -285.4375,   78.4375, -177.9375,1478626652.388
 -349.5000,  156.3750, -110.1250,1478626652.393
 -270.1875,  140.3125, -120.6875,1478626652.416
 -192.1875,  146.1875, -113.6250,1478626652.441
 -120.6250,  164.2500, -111.5625,1478626652.461
  -88.4375,  170.3750, -103.3125,1478626652.476
  -62.2500,  169.1250,  -94.1250,1478626652.500
   -4.6875,  168.6875,  -92.1875,1478626652.513
   41.3125,  167.3125,  -98.5000,1478626652.536
   16.5625,  167.0625, -104.0625,1478626652.558
  -73.2500,  161.2500,  -98.3125,1478626652.573
 -175.1250,  154.0625,  -81.7500,1478626652.596
 -210.2500,  139.5000,  -79.6875,1478626652.618
 -173.1875,  110.9375,  -80.6875,1478626652.632
 -104.5000,   84.8750,  -72.2500,1478626652.656
    6.0000,   59.2500,  -45.1875,1478626652.678
   88.8125,   55.0625,  -19.9375,1478626652.692
   91.5625,   51.9375,   -5.3125,1478626652.715
   20.9375,   38.5000,    5.6875,1478626652.739
  -45.7500,   28.9375,    2.3750,1478626652.752
  -58.0000,   28.8125,    1.6875,1478626652.775
  -31.9375,   35.0000,    8.3125,1478626652.798
   -6.5625,   30.4375,   12.3125,1478626652.812
  -25.7500,   11.4375,   16.2500,1478626652.843
  -34.6250,    1.0000,    1.1875,1478626652.858
  -18.2500,    1.0000,   -1.5625,1478626652.872
   10.3125,    1.5000,    0.3125,1478626652.895
   25.3750,    3.3125,    2.6875,1478626652.918
   18.9375,    5.0625,    6.5000,1478626652.934
    0.2500,    0.7500,    3.3750,1478626652.956
    1.8125,    6.8750,   -4.2500,1478626652.978
    4.1875,   11.2500,   -7.6250,1478626652.994
   -1.1875,   12.6875,   -1.2500,1478626653.017
  -14.0625,    8.1875,    5.2500,1478626653.032
  -15.9375,    6.0000,    2.5000,1478626653.054
  -16.6875,    2.2500,   -0.5625,1478626653.076
   -7.2500,    1.6250,   -2.8750,1478626653.091
    7.3125,    4.1250,   -6.3750,1478626653.114
   17.8750,    5.9375,   -3.3125,1478626653.137
   17.2500,    4.8750,   -0.2500,1478626653.158
    4.1875,    4.8750,    1.7500,1478626653.174
  -10.6250,    3.3125,    2.5625,1478626653.197
  -11.4375,    1.6250,    0.0625,1478626653.219
   -3.8125,    1.5000,    1.3750,1478626653.242
   -0.1250,    1.3125,    4.0000,1478626653.273
   -0.9375,    1.5000,    4.1875,1478626653.294
    0.9375,    1.1875,    4.0625,1478626653.297
   -0.4375,    0.6250,    5.5000,1478626653.318
   -9.8125,   -0.1875,    6.2500,1478626653.370
  -22.7500,   -0.3125,    5.0625,1478626653.372
  -24.5000,    0.3125,    2.2500,1478626653.394
  -12.5625,    1.5000,   -2.8750,1478626653.401
    4.5625,    1.5625,   -3.9375,1478626653.414
   13.1250,    1.4375,   -3.8125,1478626653.436
   13.6875,    1.5000,   -4.0625,1478626653.467
    7.8750,    1.3125,   -4.4375,1478626653.489
    4.4375,    1.5625,   -3.6250,1478626653.497
    3.8125,    1.5000,   -1.0625,1478626653.520
    3.8125,    1.1875,    1.1875,1478626653.534
   -0.0625,    0.1875,    3.2500,1478626653.557
   -6.1875,   -0.7500,    4.9375,1478626653.580
   -8.5000,   -1.0625,    5.6875,1478626653.594
   -6.6250,   -1.0000,    5.6875,1478626653.616
   -1.6250,    0.3750,    3.6250,1478626653.640
    3.2500,    1.6875,    2.7500,1478626653.654
    6.5625,    2.3125,    1.9375,1478626653.676
    5.8125,    2.5625,    0.5000,1478626653.700
    3.7500,    3.0000,   -1.3750,1478626653.714
    2.1250,    2.7500,   -2.3125,1478626653.743
    1.8125,    1.9375,   -2.9375,1478626653.760
   13.3750,    7.9375,  -18.7500,1478626832.307
    5.0625,   15.8750,  -23.5625,1478626832.322
   -3.5000,   22.5000,  -27.1875,1478626832.338
   10.2500,   60.0000,  -35.0000,1478626832.369
   52.1875,  119.2500, -104.4375,1478626832.382
   76.0625,  149.4375, -212.7500,1478626832.398
   41.6875,  174.3750, -172.7500,1478626832.420
  149.1250,  114.8125, -114.1250,1478626832.442
  196.5625,    7.7500,  -13.6250,1478626832.457
    4.6250,  -55.6875,    8.5000,1478626832.485
 -141.1250,   -9.5625,  -64.4375,1478626832.502
 -123.1875,   18.4375, -104.8125,1478626832.518
   -2.0625,  -21.2500,  -73.1250,1478626832.540
   80.7500,  -22.8125,  -12.5625,1478626832.562
   71.1250,  -26.4375,   11.1875,1478626832.577
   13.5625,   -0.4375,    2.3750,1478626832.600
  -51.8750,   15.0625,  -25.8125,1478626832.622
  -62.6250,   16.6250,  -30.8125,1478626832.645
   12.6250,   16.6875,  -24.0000,1478626832.664
   50.5625,    5.3750,   -9.5000,1478626832.682
   28.6250,   -3.3750,    0.8750,1478626832.697
   -9.0625,  -12.1875,    7.4375,1478626832.720
   -3.1875,   -9.4375,   -1.2500,1478626832.751
   21.8750,   -6.8125,   -6.1250,1478626832.757
   38.6875,  -11.1250,   13.4375,1478626832.780
   32.2500,  -16.0000,   22.6250,1478626832.802
    5.3750,  -12.0625,    2.7500,1478626832.817
  -22.8750,   -4.6875,   -6.6875,1478626832.840
   -6.5625,    2.8750,   -9.6875,1478626832.862
   15.3750,   14.3125,   -5.4375,1478626832.877
   15.7500,   18.1875,   -3.4375,1478626832.900
   -9.1875,   17.1250,    3.1875,1478626832.922
  -18.7500,    5.8750,    5.0000,1478626832.937
  -44.5625,  -12.8125,   11.7500,1478626832.960
  -33.5625,   -9.6250,   22.2500,1478626832.982
  -87.3750,   -5.5000,   27.1250,1478626832.997
   -3.6250,    8.8750,    3.0000,1478626833.028
  102.8125,   -6.1875,   -3.1250,1478626833.042
  104.5000,   -3.3750,   23.9375,1478626833.057
   85.6875,   19.5625,  -41.3125,1478626833.080
   57.8750,   12.5000,  -46.5625,1478626833.102
   33.7500,   -2.8750,  -47.4375,1478626833.117
   16.3125,   -3.5625,  -93.0625,1478626833.140
   15.9375,   -1.9375,  -85.7500,1478626833.154
    1.5625,  -10.0000,  -30.5625,1478626833.179
  -57.1875,   -6.8125,    3.8125,1478626833.201
  -85.0000,   -3.1875,    6.1250,1478626833.222
  -46.8125,    6.1250,   14.0000,1478626833.237
   -5.0625,   12.4375,   -4.3750,1478626833.260
   12.2500,   14.9375,   -8.5000,1478626833.274
   -8.5000,   10.2500,  -10.6875,1478626833.305
  -16.1875,    2.2500,   -3.4375,1478626833.319
   -1.3750,   -4.5625,    1.9375,1478626833.334
    4.2500,   -4.6875,    7.3125,1478626833.356
   -5.5000,    0.8750,    6.6250,1478626833.380
  -12.1875,    6.2500,    2.7500,1478626833.394
  -17.0000,    8.3125,   -4.6875,1478626833.416
  -17.4375,    8.8750,  -10.4375,1478626833.439
   -8.7500,    5.3125,   -9.3750,1478626833.457
    2.9375,   -1.3750,   -6.1250,1478626833.478
    3.0000,   -5.1875,   -4.0000,1478626833.499
   -4.3125,   -7.0625,   -2.0000,1478626833.514
  -10.2500,   -7.8750,    0.3750,1478626833.536
  -13.8125,   -7.3125,    2.4375,1478626833.559
  -16.4375,   -6.0000,    2.8125,1478626833.582
  -17.2500,   -4.1250,    0.7500,1478626833.597
  -24.6250,   -0.8750,   -0.9375,1478626833.619
  -24.0000,    1.0000,   -4.9375,1478626833.642
  -14.0000,    0.9375,   -8.2500,1478626833.657
   -8.2500,   -0.4375,   -8.0000,1478626833.679
  -15.0000,   -0.3125,   -7.0625,1478626833.696
  -26.0000,   -0.6875,   -5.6250,1478626833.717
  -29.3125,   -0.0625,   -2.7500,1478626833.740
  -29.2500,   -1.0000,   -0.6875,1478626833.757
  -29.6250,   -2.1250,    1.0000,1478626833.777
  -34.6250,   -3.3125,    0.6875,1478626833.799
  -45.1250,   -4.5000,   -0.3750,1478626833.815
  -52.5000,   -3.4375,   -2.4375,1478626833.837
  -57.8750,   -0.9375,   -3.1250,1478626833.860
  -61.3750,    5.5625,   -4.6875,1478626833.875
  -66.1875,   12.5000,   -1.8750,1478626833.896
  -72.2500,   17.1250,   -1.0625,1478626833.919
  -85.7500,   18.8125,   -0.2500,1478626833.935
 -105.0625,   19.0000,   -2.1875,1478626833.956
 -122.5000,   18.7500,   -5.5625,1478626833.979
 -135.5000,   18.9375,  -11.0000,1478626833.995
 -132.8125,   21.3750,  -10.5000,1478626834.016
 -109.3750,   20.6250,  -12.2500,1478626834.039
  -81.5000,   20.3750,  -18.3125,1478626834.055
  -67.6875,   20.3750,  -25.6250,1478626834.076
  -70.5625,   22.1250,  -32.0625,1478626834.100
  -65.3750,   28.5000,  -33.8125,1478626834.116
  -36.8750,   34.5000,  -28.5000,1478626834.140
  -20.5000,   38.1250,  -30.8125,1478626834.159
  -32.0625,   38.9375,  -39.8750,1478626834.182
  -65.5625,   38.6875,  -46.4375,1478626834.199
  -86.1875,   32.8750,  -46.8125,1478626834.236
  -49.2500,   20.2500,  -39.1250,1478626834.238
   33.0000,   -5.5625,  -30.1875,1478626834.273
   81.5625,  -35.6875,  -13.8125,1478626834.288
   74.8125,  -59.5000,  -17.0000,1478626834.296
   29.9375,  -72.6250,  -14.5000,1478626834.328
   -7.8125,  -77.0625,  -16.8750,1478626834.339
  -20.4375,  -72.8750,  -20.6875,1478626834.363
  -12.2500,  -65.3125,  -24.9375,1478626834.376
  -12.0000,  -53.1250,  -29.6875,1478626834.400
  -23.8125,  -37.6250,  -32.1250,1478626834.417
  -36.1875,  -19.6250,  -32.1250,1478626834.438
  -26.2500,   -3.6250,  -30.2500,1478626834.459
   -4.1250,    7.1250,  -24.5000,1478626834.475
   13.2500,   13.1250,  -20.3750,1478626834.496
   18.8750,   13.9375,  -17.5000,1478626834.519
    9.6250,   11.6250,  -11.7500,1478626834.535
    2.6250,    6.5000,  -11.5000,1478626834.556
   -7.1875,    1.4375,  -11.0000,1478626834.587
  -14.5625,   -2.9375,  -11.8125,1478626834.595
  -21.5625,   -5.0000,  -11.5625,1478626834.616
  -10.5625,   -4.0000,  -12.0000,1478626834.640
    9.6250,   -1.3125,   -8.4375,1478626834.656
   18.2500,    1.3750,   -2.3750,1478626834.678
    6.0625,    3.3750,    1.9375,1478626834.699
  -15.0625,    4.5625,    5.1250,1478626834.716
  -31.6875,    4.8750,    6.6250,1478626834.738
  -35.0000,    4.3750,   11.3750,1478626834.759
  -39.1875,    4.7500,   18.0000,1478626834.775
  -44.4375,    4.3750,   23.9375,1478626834.798
  -52.6875,    4.0625,   31.3750,1478626834.819
  -60.2500,    6.8750,   36.0625,1478626834.835
  -62.1875,   12.3125,   37.1875,1478626834.865
  -64.6250,   16.8750,   48.6250,1478626834.880
  -71.0000,   25.3125,   74.1250,1478626834.895
  -69.5000,   35.0000,   95.5000,1478626834.918
  -67.7500,   49.6250,  102.6875,1478626834.939
  -86.6875,   66.2500,   96.3750,1478626834.955
 -113.3125,   76.8750,   91.9375,1478626834.977
 -160.0625,   80.7500,   89.6875,1478626835.000
 -196.4375,   85.6875,   88.8125,1478626835.015
 -214.8125,   87.4375,   88.8125,1478626835.037
 -194.1875,   82.6875,   91.0625,1478626835.059
 -148.5000,   79.9375,   93.0000,1478626835.090
  -99.1875,   71.6875,   79.9375,1478626835.097
  -43.5625,   59.0000,   67.9375,1478626835.119
   -9.5625,   43.6875,   54.0000,1478626835.142
    7.3125,   37.5000,   42.0000,1478626835.157
    6.6250,   29.1875,   38.7500,1478626835.180
    0.5000,   14.5625,   29.2500,1478626835.195
    7.6250,    0.7500,   11.6250,1478626835.217
   12.3750,   -6.8125,   17.8750,1478626835.240
   13.3125,  -15.5625,   24.8125,1478626835.255
    5.0625,  -23.2500,   20.6250,1478626835.277
  -18.5625,  -32.7500,   16.8750,1478626835.300
  -45.5000,  -45.1875,   18.2500,1478626835.315
  -65.0000,  -55.5625,   19.9375,1478626835.337
  -63.2500,  -63.8750,   22.3750,1478626835.360
  -39.5000,  -68.9375,   21.7500,1478626835.375
   -4.5625,  -73.0000,   21.0625,1478626835.397
   18.0625,  -74.5625,   18.9375,1478626835.429
   13.4375,  -76.8125,   14.3750,1478626835.436
    2.1250,  -77.6250,    5.8750,1478626835.457
   -7.9375,  -83.9375,    5.5000,1478626835.480
  -37.7500,  -92.8125,    3.1875,1478626835.495
  -65.9375, -102.8125,   -2.3750,1478626835.525
  -93.2500, -113.3750,   -9.9375,1478626835.533
 -114.7500, -119.0000,  -10.6250,1478626835.555
 -109.0000, -125.9375,  -10.9375,1478626835.577
  -95.4375, -132.8750,  -10.5625,1478626835.601
  -83.4375, -140.0000,   -7.5625,1478626835.614
  -79.8750, -146.5625,   -2.0625,1478626835.637
  -86.6250, -152.0000,   11.1875,1478626835.653
  -87.1875, -154.8125,   11.7500,1478626835.675
  -69.1875, -154.9375,   21.1875,1478626835.699
  -46.5000, -151.5000,   31.0625,1478626835.713
  -36.7500, -146.6875,   38.7500,1478626835.736
  -34.6250, -134.7500,   44.9375,1478626835.757
  -28.5000, -120.3750,   52.0000,1478626835.773
   -6.2500, -102.5000,   56.1875,1478626835.804
   15.9375,  -84.3750,   58.5000,1478626835.817
   37.2500,  -65.8750,   58.8750,1478626835.833
   36.3125,  -53.1875,   49.3125,1478626835.857
   43.2500,  -40.8750,   36.8750,1478626835.877
   39.5625,  -24.9375,   32.7500,1478626835.893
   14.8125,  -16.0000,   33.8750,1478626835.916
   -7.5000,  -10.0625,   30.7500,1478626835.937
  -30.0625,   -5.3125,   24.8750,1478626835.953
  -12.7500,   -3.6250,   26.1250,1478626835.976
    7.2500,   -0.1250,   34.6250,1478626835.997
   13.6875,    3.7500,   32.8125,1478626836.013
   -0.2500,   11.4375,   31.8125,1478626836.036
  -22.3750,   19.8125,   22.3750,1478626836.057
  -60.2500,   21.8125,   15.1875,1478626836.080
  -85.4375,   16.0000,   15.6250,1478626836.096
  -61.6875,   10.8125,   16.0000,1478626836.117
    1.2500,   10.5625,   19.4375,1478626836.133
   71.0625,    6.0000,   32.3750,1478626836.156
   97.1250,    3.2500,   52.0000,1478626836.177
   82.8750,    1.0000,   56.6250,1478626836.193
   35.4375,   -2.8750,   42.8750,1478626836.216
  -10.5625,   -5.1250,   25.0625,1478626836.237
  -21.5000,   -3.0625,    2.6875,1478626836.253
  -18.8125,   -4.6875,   -7.6250,1478626836.276
  -11.3125,   -3.3750,  -16.6875,1478626836.297
   -1.3750,   -3.2500,  -14.8750,1478626836.313
    4.0625,   -4.0000,  -11.4375,1478626836.336
   12.4375,   -3.8750,   -9.9375,1478626836.359
   14.3750,   -4.6250,   -7.4375,1478626836.373
   -3.1250,   -7.2500,    2.5000,1478626836.396
  -18.6250,   -8.6250,    0.8750,1478626836.417
  -20.3125,   -6.8125,   -6.3125,1478626836.433
  -11.1875,   -5.6250,   -7.1250,1478626836.456
   -2.9375,   -3.7500,   -9.3750,1478626836.477
   -7.2500,   -1.7500,   -9.5000,1478626836.493
  -10.1250,   -2.1250,   -3.2500,1478626836.516
   -3.5000,   -7.4375,   11.3125,1478626836.537
    7.0625,   -8.7500,   22.8750,1478626836.553
   15.3750,   -4.9375,   23.0625,1478626836.575
   14.5000,   -3.0625,   23.0000,1478626836.597
   13.1250,   -0.6875,   21.3125,1478626836.620
   14.8125,    1.3125,   15.1250,1478626836.635
   27.8750,    0.5625,   17.8750,1478626836.657
   42.3750,    2.0000,   20.0625,1478626836.673
   43.1875,    5.8125,   16.1875,1478626836.695
   33.8750,   11.9375,   13.8750,1478626836.719
   22.6875,   17.6250,    8.8125,1478626836.733
    9.8125,   21.9375,    3.3125,1478626836.756
   -4.1250,   21.3125,   -1.0000,1478626836.779
  -18.1250,   17.8125,   -7.1875,1478626836.793
  -15.9375,   11.1875,   -7.2500,1478626836.824
  -11.1875,    3.9375,   -6.6250,1478626836.839
    0.1250,   -2.1875,   -2.5625,1478626836.853
    5.9375,   -7.0000,    0.8750,1478626836.875
    6.3750,   -8.3125,    3.5000,1478626836.899
    1.0000,   -7.8750,    1.5625,1478626836.913
   -2.1250,   -4.9375,    2.0000,1478626836.935
   -3.3750,    0.4375,    3.3750,1478626836.958
   -5.5000,    5.5625,    0.5625,1478626836.973
   -6.6875,    8.7500,    2.3750,1478626836.995
   -9.5000,    9.4375,    4.1875,1478626837.018
   -7.7500,    8.5000,    3.9375,1478626837.033
    0.9375,    6.2500,    3.4375,1478626837.063
   10.0625,    4.1250,    1.4375,1478626837.086
   12.0000,    2.9375,   -1.0000,1478626837.093
   11.3125,    3.0000,   -1.1875,1478626837.115
    9.4375,    4.0625,   -1.8750,1478626837.138
    7.0000,    5.1250,   -2.3750,1478626837.153
    4.8125,    4.8125,   -2.4375,1478626837.175
    6.5000,    4.1250,   -1.1250,1478626837.198
   10.4375,    3.9375,   -1.0000,1478626837.219
   12.5625,    2.6875,   -1.2500,1478626837.235
    9.6250,    2.1250,   -1.2500,1478626837.259
   13.1875,    1.4375,    2.0625,1478626837.280
   20.4375,    0.5000,    5.6250,1478626837.295
   21.1875,    0.6250,    5.1875,1478626837.319
   16.4375,    0.7500,    3.4375,1478626837.342
    8.0625,    0.0625,    3.0625,1478626837.364
    1.1250,   -0.0625,    1.4375,1478626837.379
   -3.9375,   -0.1875,   -1.1875,1478626837.400
   -7.3125,   -0.5625,   -1.2500,1478626837.415
   -5.5000,   -1.4375,   -1.3750,1478626837.439
   -3.3750,   -2.6250,   -1.7500,1478626837.467
   -3.1875,   -3.5000,   -1.3750,1478626837.475
   -2.6875,   -3.6250,   -1.6875,1478626837.498
   -0.5000,   -2.8125,   -2.8125,1478626837.520
    0.1875,   -1.6875,   -3.0625,1478626837.535
    1.0625,   -0.3750,   -1.6250,1478626837.549
    1.6875,    1.0000,    0.0000,1478626837.571
    1.0000,    2.1875,   -0.2500,1478626837.595
   -0.0625,    3.0625,   -0.4375,1478626837.617
   -0.8125,    3.5000,    0.3750,1478626837.631
    0.0625,    3.5000,    0.2500,1478626837.655
    0.7500,    3.2500,    0.6250,1478626837.669
    0.8125,    3.5000,   -1.3125,1478626837.692
   -1.2500,    3.1875,   -4.9375,1478626837.714
   -2.8750,    1.5625,   -4.2500,1478626837.729
    0.9375,   -0.5000,    3.5625,1478626837.751
    2.8125,   -1.2500,    9.0000,1478626837.775
   -0.1875,   -1.1875,    8.0000,1478626837.789
  -10.6250,   -1.2500,    5.3125,1478626837.812
  -17.3125,   -1.6875,    6.4375,1478626837.835
  -14.9375,   -1.5000,    5.6875,1478626837.849
   -8.0000,   -1.2500,    4.1875,1478626837.872
   -5.8125,   -1.3750,    2.3125,1478626837.895
   -9.8125,   -1.5625,   -2.9375,1478626837.917
  -10.0000,   -2.1250,   -4.2500,1478626837.931
   -6.0625,   -2.5000,   -3.2500,1478626837.955
    2.0000,   -2.0625,   -3.6875,1478626837.969
    8.5625,   -0.8125,   -3.8125,1478626837.991
   12.2500,    1.0000,   -3.3750,1478626838.024
   13.2500,    2.8125,   -1.3750,1478626838.029
   11.6250,    4.6250,    2.6875,1478626838.052
   10.8750,    6.3125,    3.4375,1478626838.075
   12.0000,    7.3750,    2.2500,1478626838.089
    9.1875,    7.6875,    2.4375,1478626838.114
    1.2500,    7.8125,    2.2500,1478626838.135
   -9.6250,    6.8750,    2.3750,1478626838.149
  -14.4375,    4.8750,    1.5625,1478626838.171
   -9.8125,    0.8750,    2.1250,1478626838.196
  -11.5625,   -3.6250,    3.5625,1478626838.209
  -14.0625,   -7.8125,    2.6875,1478626838.232
  -13.3750,  -10.9375,    7.8125,1478626838.254
  -14.0000,  -11.8750,    6.3750,1478626838.269
  -18.9375,  -11.2500,   -0.1250,1478626838.292
  -17.0000,  -10.1250,   -7.5000,1478626838.315
   -8.1250,  -10.0000,  -13.5000,1478626838.329
    2.1250,   -9.7500,   -9.6250,1478626838.352
    6.9375,   -9.2500,   -6.0000,1478626838.375
   10.8125,   -8.0625,   -5.4375,1478626838.389
   12.1875,   -5.0625,   -3.6875,1478626838.412
   12.8750,   -0.0625,   -2.3750,1478626838.435
   17.8750,    5.3750,   -1.0000,1478626838.449
   21.6250,    9.9375,    0.3750,1478626838.473
   24.8750,   13.5625,    0.3125,1478626838.495
   22.6875,   15.3125,    2.3125,1478626838.509
   14.1875,   15.6250,    2.8750,1478626838.531
    7.7500,   13.8125,   -3.5625,1478626838.554
    2.2500,    9.1875,   -5.2500,1478626838.577
    1.1875,    4.0625,   -4.9375,1478626838.592
   -0.6250,   -0.9375,   -6.0000,1478626838.615
   -4.4375,   -6.2500,   -8.2500,1478626838.629
  -12.8750,  -10.1250,   -8.4375,1478626838.651
  -18.4375,  -12.0625,   -7.8750,1478626838.674
  -18.3125,  -12.3750,   -4.9375,1478626838.689
  -13.6875,  -11.6250,   -1.8750,1478626838.711
   -7.8125,   -9.8125,    1.1250,1478626838.734
   -3.4375,   -6.8125,    0.8750,1478626838.752
    0.0625,   -3.1875,    0.5000,1478626838.772
    1.7500,   -0.1875,    1.8125,1478626838.788
    4.9375,    2.4375,    2.2500,1478626838.809
    9.5625,    4.2500,    2.2500,1478626838.832
   15.5000,    5.6250,    4.0625,1478626838.856
   18.0000,    6.8125,    6.0000,1478626838.869
   21.3125,    8.6875,    5.5000,1478626838.892
   20.5625,   11.3125,    3.9375,1478626838.914
   16.9375,   13.4375,    3.7500,1478626838.929
   12.7500,   14.0625,    3.6875,1478626838.952
   10.6875,   13.2500,    2.2500,1478626838.968
    9.2500,   10.9375,   -1.1875,1478626838.990
    2.3125,    7.3125,   -3.8125,1478626839.011
   -7.5000,    3.0000,   -6.1250,1478626839.029
  -15.0625,   -1.2500,   -9.0000,1478626839.049
  -14.8750,   -5.4375,  -10.3750,1478626839.071
  -11.8125,   -9.1250,   -7.3125,1478626839.088
   -8.5625,  -11.5625,   -4.0625,1478626839.109
   -7.3750,  -12.2500,   -1.4375,1478626839.133
   -8.5625,  -10.8125,   -1.1875,1478626839.148
   -7.6250,   -7.9375,   -3.2500,1478626839.169
   -6.9375,   -4.2500,   -3.8750,1478626839.191
   -6.0000,   -0.9375,   -3.7500,1478626839.208
   -2.2500,    1.5625,   -3.0000,1478626839.229
    6.7500,    3.3750,   -1.8125,1478626839.251
   14.6875,    4.7500,   -0.8750,1478626839.268
   18.2500,    5.4375,    1.3750,1478626839.289
   18.6250,    6.1875,    4.1250,1478626839.312
   17.5000,    8.0625,    4.3750,1478626839.329
   17.8750,   10.6250,    3.5000,1478626839.349
   14.3750,   12.9375,    1.5625,1478626839.372
    8.1250,   14.0000,    0.8750,1478626839.389
    1.6250,   13.5000,   -0.3750,1478626839.412
   -2.1875,   11.0000,   -2.9375,1478626839.432
   -2.3125,    6.7500,   -3.5000,1478626839.448
   -3.1875,    1.3750,   -1.7500,1478626839.470
   -2.6250,   -4.0625,   -1.6875,1478626839.492
   -7.1250,   -8.1250,   -0.8750,1478626839.508
  -13.2500,  -10.5000,   -1.6250,1478626839.530
  -15.5625,  -10.5625,   -2.8125,1478626839.551
  -13.3125,   -9.1250,   -5.0000,1478626839.568
  -10.8750,   -6.8750,   -5.3750,1478626839.590
  -10.7500,   -4.0625,   -5.9375,1478626839.611
   -9.5625,   -1.6250,   -4.6875,1478626839.628
   -4.3750,    0.2500,   -1.6250,1478626839.650
    2.1250,    2.2500,    0.3125,1478626839.672
    5.4375,    5.1875,    0.2500,1478626839.689
    4.8125,    9.0000,    0.8125,1478626839.710
    2.4375,   12.7500,    1.6250,1478626839.731
    2.7500,   15.6250,    1.4375,1478626839.748
    7.0000,   17.2500,    4.3750,1478626839.770
   14.3125,   17.6875,   11.2500,1478626839.791
   21.7500,   17.9375,   13.6250,1478626839.808
   24.7500,   17.1875,   13.0625,1478626839.838
   15.6875,   14.6875,   11.0625,1478626839.861
    4.1250,   12.6250,    5.5000,1478626839.868
   -7.1875,    9.7500,    0.5000,1478626839.890
  -14.3125,    4.7500,   -4.5625,1478626839.912
  -16.2500,   -2.3750,   -7.3750,1478626839.928
  -13.4375,  -10.6250,   -9.2500,1478626839.950
  -12.3125,  -19.3750,   -9.3125,1478626839.971
  -13.5000,  -27.7500,   -7.8125,1478626839.988
  -13.6875,  -32.5625,   -8.2500,1478626840.010
  -12.1250,  -34.1250,   -7.7500,1478626840.032
  -13.1250,  -34.1875,   -7.8125,1478626840.048
  -15.3125,  -34.4375,   -8.3125,1478626840.070
  -13.2500,  -35.1250,   -8.7500,1478626840.092
   -6.3750,  -34.8125,   -9.0000,1478626840.107
   -0.8750,  -34.3750,  -11.4375,1478626840.137
    7.4375,  -31.8750,  -22.3750,1478626840.152
    2.2500,  -28.0000,  -49.0625,1478626840.167
   15.5000,  -21.3125,  -79.3125,1478626840.189
   36.5625,  -12.8125, -116.1875,1478626840.212
   50.0000,  -11.9375, -153.7500,1478626840.227
   44.3750,  -20.3125, -189.1250,1478626840.249
   29.4375,  -31.1875, -219.0000,1478626840.272
   32.9375,  -31.4375, -230.1250,1478626840.287
   -1.9375,  -25.5625, -218.4375,1478626840.311
  -36.0000,  -20.0000, -200.4375,1478626840.332
   -1.8125,  -16.6875, -220.6250,1478626840.347
   70.6250,   -6.5000, -242.5000,1478626840.369
   70.7500,    1.2500, -212.4375,1478626840.395
   28.3750,    9.5625, -198.1875,1478626840.415
  -16.5625,   23.8750, -182.0000,1478626840.431
  -17.0000,   39.8125, -155.8125,1478626840.452
  -13.1875,   56.3750, -136.7500,1478626840.467
  -22.1250,   64.2500, -128.7500,1478626840.490
  -24.5625,   63.1250, -125.6875,1478626840.520
  -17.3750,   54.1250, -112.7500,1478626840.529
   -0.5625,   40.1875,  -98.6250,1478626840.550
   -2.7500,   20.4375,  -77.3125,1478626840.572
  -40.6250,    1.7500,  -65.3750,1478626840.588
  -85.2500,  -11.6250,  -80.6875,1478626840.610
  -77.5625,  -22.3750,  -81.0625,1478626840.632
  -59.0000,  -30.3125,  -53.9375,1478626840.648
  -44.5625,  -32.4375,  -31.3125,1478626840.669
  -27.5625,  -33.0000,   -0.8750,1478626840.693
  -35.4375,  -28.8125,    7.5625,1478626840.708
  -53.2500,  -28.8125,    4.1250,1478626840.730
  -55.6250,  -23.3125,   -1.5000,1478626840.752
  -39.4375,  -19.3750,   -5.3750,1478626840.768
  -22.9375,  -14.2500,   -3.4375,1478626840.790
  -13.6250,  -11.3125,   -0.4375,1478626840.812
  -11.5625,   -7.1875,   -0.8125,1478626840.828
  -11.1250,    0.4375,   -2.1250,1478626840.849
   -6.4375,    5.6875,   -2.3750,1478626840.872
    5.8125,   11.9375,   -0.3125,1478626840.888
   20.5625,   19.0000,    0.6250,1478626840.910
   25.2500,   23.2500,   -2.5000,1478626840.933
   22.0000,   24.8125,   -6.1875,1478626840.949
   15.5000,   23.6875,   -7.0625,1478626840.970
   15.6875,   20.7500,   -2.3125,1478626840.992
   25.5625,   16.2500,    4.8125,1478626841.009
   35.1250,   10.8125,    7.9375,1478626841.030
   42.6250,    6.8125,   11.8750,1478626841.045
   51.2500,    5.3750,   13.9375,1478626841.068
   58.2500,    3.7500,   13.6875,1478626841.090
   59.1250,    2.2500,   12.7500,1478626841.106
   56.3125,    4.3125,   14.3750,1478626841.128
   55.8125,    9.3750,   18.6875,1478626841.150
   61.6875,   16.1250,   19.8125,1478626841.165
   68.0000,   25.1250,   22.8125,1478626841.188
   70.4375,   34.2500,   25.5625,1478626841.210
   69.3125,   39.3750,   27.9375,1478626841.225
   64.9375,   42.0625,   30.6875,1478626841.248
   61.2500,   43.1875,   30.0625,1478626841.269
   56.1250,   41.6875,   29.1250,1478626841.286
   52.0625,   35.5000,   29.7500,1478626841.308
   54.1875,   29.6250,   28.1250,1478626841.329
   56.0625,   21.8125,   24.8750,1478626841.353
   48.6875,   12.7500,   22.0625,1478626841.376
   35.1250,    5.1875,   17.8750,1478626841.389
   27.8750,   -0.8125,   14.3750,1478626841.421
   22.7500,   -3.6875,   10.7500,1478626841.428
   19.3125,   -7.5000,    6.3750,1478626841.450
   20.1250,   -7.6875,    1.7500,1478626841.466
   16.2500,   -6.5000,   -0.5000,1478626841.488
    9.3750,   -1.7500,   -5.8125,1478626841.511
    8.6250,    1.2500,   -8.2500,1478626841.525
   11.8125,    3.7500,   -8.6875,1478626841.548
   10.5000,    3.8750,   -8.7500,1478626841.571
    4.0625,    3.7500,  -10.5000,1478626841.585
   -4.1250,    2.2500,  -11.0625,1478626841.608
   -9.0625,   -0.6875,  -12.1250,1478626841.631
  -12.1875,   -3.4375,  -14.3125,1478626841.646
  -16.4375,   -5.6250,  -15.5000,1478626841.668
  -18.5000,   -7.0000,  -16.6250,1478626841.691
  -21.8750,   -6.0625,  -16.3750,1478626841.705
  -23.3125,   -3.2500,  -14.4375,1478626841.729
  -22.3125,   -0.7500,  -13.0000,1478626841.766
  -28.1250,    1.4375,  -13.1875,1478626841.772
  -31.1875,   -0.1250,  -14.8125,1478626841.803
  -31.5625,   -3.4375,  -15.9375,1478626841.811
  -28.3125,   -8.8125,  -14.1250,1478626841.841
  -28.6250,  -14.4375,  -11.7500,1478626841.848
  -31.6875,  -18.9375,  -11.1250,1478626841.878
  -34.1875,  -21.5625,   -7.8125,1478626841.892
  -35.6250,  -22.3750,   -4.7500,1478626841.914
  -38.2500,  -22.0000,   -3.1250,1478626841.931
  -41.5625,  -20.9375,   -1.6250,1478626841.952
  -40.6875,  -19.4375,   -2.3750,1478626841.968
  -35.8125,  -19.0000,   -5.1875,1478626841.992
  -33.1250,  -17.3125,   -7.8750,1478626842.013
  -29.0625,  -15.1250,  -10.3125,1478626842.028
  -23.2500,  -11.8125,  -10.7500,1478626842.051
  -18.6875,   -7.8125,  -10.5625,1478626842.080
  -18.3750,   -4.1875,   -9.3125,1478626842.088
  -20.8750,   -1.2500,   -8.7500,1478626842.111
  -23.7500,    1.6875,   -8.7500,1478626842.132
  -25.3125,    3.4375,   -9.6250,1478626842.148
  -24.0000,    4.0000,  -11.6875,1478626842.171
  -24.4375,    3.6875,  -14.5000,1478626842.192
  -24.3125,    2.3750,  -17.8125,1478626842.208
  -24.6875,    0.6875,  -19.5000,1478626842.230
  -23.5625,   -0.3125,  -19.3750,1478626842.252
  -20.0000,   -1.0625,  -18.6875,1478626842.268
  -18.7500,   -2.3750,  -17.1250,1478626842.290
  -19.2500,   -2.3750,  -14.6875,1478626842.312
  -15.5625,   -2.7500,   -9.9375,1478626842.336
  -13.0000,   -3.7500,   -6.1250,1478626842.357
  -14.7500,   -4.7500,   -2.0625,1478626842.372
  -16.4375,   -6.0000,   -0.8125,1478626842.388
  -13.8125,   -8.1250,    0.1875,1478626842.410
  -13.6250,   -8.6875,    0.5625,1478626842.433
  -12.1875,   -7.4375,    2.3750,1478626842.448
   -4.8125,   -3.7500,    3.9375,1478626842.470
    2.6250,    1.6875,    7.5000,1478626842.494
    5.8125,    8.1875,    9.9375,1478626842.508
    6.4375,   15.1250,   10.6250,1478626842.530
    3.8125,   21.6875,    9.1250,1478626842.554
    1.9375,   27.2500,    8.6250,1478626842.568
    3.1875,   33.9375,    9.1875,1478626842.590
    8.6875,   40.6250,   11.5000,1478626842.613
   14.9375,   47.3125,   11.7500,1478626842.636
   19.6875,   53.1250,   10.8750,1478626842.650
   12.4375,   59.6250,    6.0000,1478626842.673
   -3.0000,   67.6875,   -0.1250,1478626842.687
  -23.8750,   76.3125,   -4.2500,1478626842.718
  -47.0625,   87.0000,   -6.6250,1478626842.724
  -67.3125,   98.5000,  -11.8750,1478626842.747
  -78.5625,  109.8125,  -21.5000,1478626842.769
  -89.3750,  120.1875,  -29.9375,1478626842.784
 -101.0000,  129.9375,  -37.3125,1478626842.807
  -74.2500,  128.5625,  -43.4375,1478626842.829
   32.8750,   90.9375,  -44.2500,1478626842.853
  117.5000,   50.3750,   -8.5000,1478626842.867
   35.6250,   18.0000,   29.5000,1478626842.889
  -99.8125,   26.7500,   44.9375,1478626842.913
 -199.2500,   59.2500,    3.6875,1478626842.927
 -307.4375,   75.5625,  -53.7500,1478626842.941
 -332.7500,   98.5625,  -39.0625,1478626842.964
 -227.7500,  122.0000,  -23.3750,1478626842.995
  -93.3750,  131.1250,  -16.8750,1478626843.002
   43.3125,  122.4375,    3.5000,1478626843.024
  138.3125,  104.0625,    4.2500,1478626843.047
  131.8125,  103.8125,    1.6875,1478626843.062
   69.3750,  118.7500,   -8.8125,1478626843.086
  -32.8125,  133.1875,  -15.8750,1478626843.115
 -117.2500,  133.9375,  -15.3750,1478626843.121
 -145.7500,  127.5000,  -11.4375,1478626843.144
 -109.6250,  119.2500,   -0.5625,1478626843.167
  -59.9375,   98.8750,    6.4375,1478626843.190
   -6.8750,   76.8750,    2.3750,1478626843.204
   52.1875,   64.8125,   -3.6250,1478626843.227
   83.1875,   60.3750,    2.3125,1478626843.241
   54.1875,   53.0625,   11.8125,1478626843.265
    9.6875,   42.5000,    4.6875,1478626843.295
  -34.9375,   31.6875,  -10.0625,1478626843.301
  -36.1875,   26.9375,  -13.6250,1478626843.335
   -6.8125,   19.3750,   -3.7500,1478626843.346
   10.9375,    9.4375,   -0.3750,1478626843.370
    5.8750,    1.3750,    5.3125,1478626843.384
   -6.5625,    1.5000,   17.1250,1478626843.415
   -5.3750,    6.5625,   16.1250,1478626843.421
    6.1250,    5.5625,   18.6250,1478626843.454
    1.6875,    3.3750,   25.3125,1478626843.467
  -19.2500,    3.5000,   20.0000,1478626843.482
  -49.7500,    4.1875,   12.3750,1478626843.504
  -82.7500,    3.8125,    6.6875,1478626843.527
  -90.0625,    5.6875,    0.3125,1478626843.541
  -84.8750,    7.4375,    0.8125,1478626843.572
  -63.6250,    8.3125,   -1.7500,1478626843.587
  -26.6250,   11.8125,    2.1875,1478626843.602
  -12.6250,    8.0625,    9.3750,1478626843.635
    1.6250,   -0.9375,    2.8125,1478626843.647
   -5.9375,   -1.3125,   -5.0625,1478626843.661
  -19.8750,    1.3750,   -2.8125,1478626843.692
  -28.8750,    2.1875,   -1.1250,1478626843.724
  -28.6250,    0.9375,    0.1875,1478626843.730
  -33.8125,   -6.3125,    2.9375,1478626843.745
  -10.4375,   -5.6250,    2.2500,1478626843.775
    9.8750,   -2.2500,    3.2500,1478626843.781
    2.0625,   -3.5625,    5.5000,1478626843.806
  -11.1875,   -2.5625,    6.5000,1478626843.826
  -23.2500,    1.3125,    8.0625,1478626843.849
  -25.1875,    3.1875,    5.9375,1478626843.864
  -24.6250,    7.5625,    2.6250,1478626843.886
  -25.3125,    4.8750,    0.6875,1478626843.909
  -20.0000,    0.6250,    2.3750,1478626843.924
  -14.8750,    4.7500,   -1.8750,1478626843.946
   -1.1875,    7.1250,   -5.5000,1478626843.961
   15.3125,    8.3125,    0.1875,1478626843.984
   13.8125,    8.5625,    3.0625,1478626844.006
   -4.4375,    6.9375,    5.8125,1478626844.024
  -10.6875,    5.5625,    3.8750,1478626844.044
   -9.5625,    4.5625,    3.9375,1478626844.067
   -2.0000,    3.0000,    2.7500,1478626844.081
    2.6875,    2.3125,    1.0000,1478626844.105
   -3.0000,    0.7500,    2.1875,1478626844.128
  -11.6875,    2.2500,   -3.0000,1478626844.143
   -6.3125,    2.9375,   -4.8750,1478626844.164
   -5.7500,    2.5625,   -4.4375,1478626844.188
   -1.4375,    3.1875,   -8.2500,1478626844.203
   -0.2500,    3.6250,   -8.5625,1478626844.224
    2.3750,    3.3125,   -8.5000,1478626844.246
    4.2500,    2.1250,   -7.1875,1478626844.263
    2.0625,    1.3125,   -4.3125,1478626844.284
   -1.2500,    0.5000,   -2.6875,1478626844.306
   -1.8750,    1.0000,   -2.1250,1478626844.323
    1.8125,    0.8750,   -1.0000,1478626844.344
    4.2500,    0.9375,   -0.3125,1478626844.366
    4.6875,    1.4375,    0.5000,1478626844.383
    1.5000,    1.9375,    0.6250,1478626844.407
   -1.3750,    1.3750,    0.7500,1478626844.426
   -0.6250,    1.4375,    0.1250,1478626844.443
    3.8125,    1.5625,   -1.1875,1478626844.464
    8.3750,    1.2500,   -1.6875,1478626844.480
    7.5625,    0.5000,   -1.1875,1478626844.502
    4.2500,    0.3125,   -1.5000,1478626844.528
   -0.7500,    0.1250,   -1.3125,1478626844.540
   -0.8750,    0.2500,   -1.6875,1478626844.563
    0.9375,    0.3125,   -1.8750,1478626844.584
    3.0000,    0.3125,   -1.8125,1478626844.600
    2.9375,    0.2500,   -1.5000,1478626844.623
    1.6250,    0.1875,   -1.1875,1478626844.644
   -0.3750,   -0.1250,   -0.9375,1478626844.662
    1.7500,    0.5000,   -1.5625,1478626844.684
    5.5000,    1.0625,   -2.6875,1478626844.704
 -259.4375,    5.8125,  103.0000,1478626971.268
 -213.8125,   42.9375,   48.6875,1478626971.275
 -130.9375,    4.9375,   62.5625,1478626971.298
  -81.5625,   17.0625,    4.6875,1478626971.328
  -13.9375,   62.6250,    9.1250,1478626971.343
  -48.5625,   12.6250,   35.5000,1478626971.358
 -113.6875,  -41.3125,   17.8125,1478626971.380
 -130.0000,  -74.6875,  -55.4375,1478626971.395
 -115.5000, -118.5000, -115.4375,1478626971.418
 -149.4375, -131.7500, -119.5000,1478626971.447
 -173.3125, -125.1250, -133.7500,1478626971.455
 -168.1250, -127.6875, -170.3750,1478626971.479
 -166.4375, -133.8125, -215.8750,1478626971.493
 -159.5625, -139.1875, -276.2500,1478626971.515
 -128.9375, -131.6875, -318.2500,1478626971.538
  -95.4375, -116.2500, -339.0000,1478626971.553
  -83.5000,  -99.6250, -343.6875,1478626971.575
  -91.9375,  -68.1875, -323.6875,1478626971.644
  -48.0000,  -18.8125, -285.6250,1478626971.657
    5.2500,   13.8125, -240.2500,1478626971.663
   27.1875,   19.0000, -197.8750,1478626971.665
   29.6875,   -5.5000, -180.4375,1478626971.680
    9.4375,  -53.6875, -149.7500,1478626971.695
  -15.6875,  -85.6250, -121.9375,1478626971.718
  -13.3750,  -87.5000, -118.1250,1478626971.740
  -20.3125,  -80.6875, -106.6250,1478626971.755
  -33.0625,  -79.1250,  -77.1875,1478626971.778
  -30.1875,  -76.3750,  -47.8750,1478626971.793
  -21.2500,  -74.6875,  -27.4375,1478626971.816
  -14.6250,  -60.1250,   -5.5000,1478626971.855
  -25.3750,  -38.5625,   36.2500,1478626971.855
  -39.5625,  -30.5000,   85.6250,1478626971.883
  -35.0625,  -11.1875,  126.7500,1478626971.898
   -5.8125,   12.5625,  140.7500,1478626971.913
  -17.1250,   30.4375,  197.1250,1478626971.935
  -64.2500,   37.3125,  304.6250,1478626971.958
  -69.2500,   28.5625,  383.8125,1478626972.004
  -20.6875,   13.1875,  386.4375,1478626972.004
    4.0625,   13.6250,  370.1250,1478626972.018
    8.3750,  -13.3750,  388.3125,1478626972.033
   14.6875,  -28.3125,  367.0000,1478626972.055
   21.0000,  -12.9375,  345.4375,1478626972.078
   58.5000,  -25.0000,  347.8750,1478626972.093
  103.8750,  -79.1875,  308.1875,1478626972.115
   79.7500, -124.3750,  265.8125,1478626972.138
   53.6875,  -80.3750,   70.6875,1478626972.161
    4.5000,  -60.3125,   -0.5000,1478626972.175
    1.9375,  -85.8125,   26.0625,1478626972.198
  -15.3125,  -95.3750,   88.7500,1478626972.213
  -72.2500,  -99.8125,  126.0625,1478626972.235
 -144.1250, -106.3750,  143.3125,1478626972.258
 -167.8750,  -89.8125,  112.5000,1478626972.272
 -236.8750,  -89.5625,   72.2500,1478626972.295
 -270.7500,  -77.3750,   62.2500,1478626972.318
 -279.3750,  -82.6250,   58.8750,1478626972.333
 -207.5625,  -83.1875,   18.5000,1478626972.355
 -131.3750,  -85.8750,   17.0625,1478626972.378
 -183.0625,  -88.8750,   32.7500,1478626972.393
 -186.6875,  -83.7500,   59.3125,1478626972.415
 -260.0625, -142.8125,   73.3125,1478626972.438
 -330.9375,  -60.2500,  -41.1875,1478626972.453
 -314.6875,  -68.9375,  -21.0625,1478626972.475
 -396.4375, -106.0000,   32.0000,1478626972.498
 -321.5625,  -94.1250,   18.6875,1478626972.513
 -257.0625,  -64.7500,   29.0625,1478626972.543
 -238.1875,  -69.3125,   61.6875,1478626972.558
 -212.5000,  -41.8750,   53.6875,1478626972.573
 -202.1250,  -15.8125,   27.5000,1478626972.595
 -154.3750,   19.3125,   -0.2500,1478626972.618
  -90.3125,   69.5625,  -21.0625,1478626972.640
   28.5625,  148.6250,  -37.8750,1478626972.655
  289.4375,  243.0000, -109.5000,1478626972.678
  534.2500,  319.0000, -181.0000,1478626972.700
  565.1875,  370.3125, -260.1875,1478626972.715
  745.3125,  412.0000, -259.2500,1478626972.738
  800.6875,  428.9375, -292.0625,1478626972.752
  763.1250,  451.5000, -356.6250,1478626972.775
  832.0625,  444.6875, -431.1875,1478626972.821
  698.5000,  379.8125, -449.5625,1478626972.828
  447.1250,  250.5000, -388.8750,1478626972.835
  375.7500,  162.3750, -289.6250,1478626972.858
  378.4375,   86.9375, -225.1250,1478626972.873
  396.6875,  102.9375, -219.0000,1478626972.903
  487.5625,  172.3125, -248.5625,1478626972.918
  262.6250,  142.6250, -314.3125,1478626972.933
  -86.5000,   75.7500, -253.0625,1478626972.963
   63.0000,   52.2500, -163.8125,1478626972.993
  210.7500,   67.0000, -149.7500,1478626972.994
   77.1875,   45.8750, -160.5625,1478626973.015
   16.3125,  -16.1875,  -66.8125,1478626973.038
   23.0625,    4.4375,  -23.8750,1478626973.053
  195.0000,   -2.3750,   23.8125,1478626973.075
  179.8125,   12.3125,   60.1250,1478626973.098
   31.5625,    6.9375,   69.0000,1478626973.113
  -63.5625,   14.8125,   92.9375,1478626973.135
  -78.6875,   48.5000,  124.4375,1478626973.158
   -2.3750,   90.3750,  114.3750,1478626973.173
  -16.7500,  104.1875,   50.7500,1478626973.195
  109.6250,   33.9375,  -43.6875,1478626973.218
  400.6250,   42.6250, -139.3125,1478626973.233
   39.6250,  -19.6250,  -20.7500,1478626973.255
  222.2500,   12.7500,  -43.8125,1478626973.277
  631.6875,  308.3750,  333.4375,1478626973.292
  513.4375,  235.6250,  -73.5625,1478626973.315
  582.0625,   70.0625, -240.7500,1478626973.338
 1076.7500,   13.9375,  270.8750,1478626973.353
  254.7500,  280.3750,    9.7500,1478626973.375
  683.3125,  -93.3125,  122.6250,1478626973.398
 1374.8750, -112.3750,  -42.2500,1478626973.413
 1359.7500, -525.3125,   70.9375,1478626973.435
 1876.1250,   30.7500, -333.6875,1478626973.458
 1174.8125,   96.5000,  223.5000,1478626973.473
  977.5625,  401.6250,  353.0000,1478626973.495
 1575.3125, -235.2500,  880.1250,1478626973.510
  981.2500, -670.8750,  305.5000,1478626973.533
  988.5000,  169.1875, -417.6250,1478626973.555
  462.5625,  160.3125, -488.0625,1478626973.570
  279.0000,  134.0625, -222.5000,1478626973.593
 -225.0625, -219.4375,  356.0625,1478626973.615
  -41.1875, -199.1250,  404.3125,1478626973.630
  116.0000, -182.8125,  312.8125,1478626973.653
   61.0000, -108.0000,   32.1875,1478626973.675
  221.9375,   15.1875,  -23.1875,1478626973.690
  130.4375,  -33.8125,   34.3125,1478626973.720
   81.7500,  -24.6875,   53.3750,1478626973.751
  124.4375,   46.6250,   87.7500,1478626973.752
  298.5625, -207.3125,   25.1250,1478626973.773
  515.3125,  -19.0000,  -38.8125,1478626973.802
  358.1250,  -23.4375,  -13.0000,1478626973.810
  796.4375,  127.6250, -438.3750,1478626973.840
 1180.9375,  146.8750, -511.0625,1478626973.855
  771.7500,   88.5000,  150.8750,1478626973.870
 2000.9375,  -81.0000,  -78.9375,1478626973.893
 2000.9375,  184.6875,   88.0000,1478626973.915
 1888.6250,  134.9375,  -14.8125,1478626973.930
 1944.9375, -332.1875,  309.1875,1478626973.953
  381.7500, -166.8125,  140.7500,1478626973.975
  423.5000,  367.8750, -127.1250,1478626973.990
  200.1250,  173.2500,  -49.0000,1478626974.013
   35.3125, -198.4375,   62.6875,1478626974.035
  -80.6875, -234.3750,  -67.3125,1478626974.050
  -60.1875, -245.8750,  -40.3125,1478626974.073
  -27.8125, -150.6875,  -47.8750,1478626974.095
   68.2500, -129.2500,  -82.7500,1478626974.118
  232.1250,  -87.5625,  -97.3125,1478626974.133
  315.0625,  -80.3125,  -47.8750,1478626974.163
  270.5000, -111.6250,  -36.3750,1478626974.170
  203.0625,  -77.8125,  -22.8750,1478626974.193
   88.3750,  -15.3750,    5.3750,1478626974.215
  -23.4375,    4.9375,   20.1875,1478626974.230
  -70.8125,   35.0000,   22.1250,1478626974.253
 1026.4375, -272.2500,  -37.8125,1478626974.275
  643.4375,    1.3750,   25.7500,1478626974.290
  949.1875,  468.0000,  -64.8750,1478626974.313
 1653.7500,  636.1250, -131.8125,1478626974.335
 2000.9375,  357.1250,  194.8125,1478626974.350
 1650.3750,  -45.6875,  130.9375,1478626974.380
 1665.9375, -546.1250,  434.8125,1478626974.395
 1439.4375, -879.1875, -256.2500,1478626974.410
  619.3125,  -26.2500,  -16.1250,1478626974.433
  613.6875,  316.6875,  -26.3125,1478626974.455
  375.1875,  218.4375,   -2.1875,1478626974.470
 -130.8125, -133.6875,  144.1875,1478626974.493
 -253.5000,  -41.8750,   47.1250,1478626974.515
 -293.8125,  121.2500, -145.5625,1478626974.530
 -152.9375,   91.1875, -290.3750,1478626974.553
   73.7500,   63.1875, -170.3125,1478626974.575
  238.8750,   63.4375,  -72.6875,1478626974.605
  291.3750,   54.6875,  -85.1250,1478626974.628
  232.6250,   45.1250, -106.2500,1478626974.643
  191.8750,   31.6250, -101.8750,1478626974.665
  131.1250,  125.1875,   69.8750,1478626974.673
  190.6875,   89.3750,  -89.6250,1478626974.695
  233.2500,   20.3125,  -76.5625,1478626974.710
  817.1875,   13.3125,   27.5000,1478626974.733
 1117.8750,   61.6875,   73.3125,1478626974.755
  935.6250,   84.3750,  266.4375,1478626974.770
 1418.8125,  169.3750,  265.8125,1478626974.792
  911.8125,   69.3125,  138.4375,1478626974.815
 1689.0000, -245.6250,  145.1875,1478626974.830
  741.1250, -130.6875,  -66.7500,1478626974.853
 1745.8750,  231.5625, -205.4375,1478626974.875
  805.9375,  -56.3750, -106.5000,1478626974.890
  326.6250,   57.9375, -248.0625,1478626974.913
  336.9375,  -66.2500,  213.6250,1478626974.935
  104.1250, -172.5000,  -46.8125,1478626974.950
  -16.5000,  -56.2500, -141.8750,1478626974.973
  167.3750,  -60.8125,  -45.4375,1478626974.995
   22.5625,  118.7500,   83.4375,1478626975.010
   83.7500,   91.0000,  233.4375,1478626975.041
   66.4375,  109.2500,  146.1875,1478626975.055
   98.9375,   68.5625,  109.5625,1478626975.070
  102.0000,   64.5000,   73.1875,1478626975.093
   97.1875,   41.3125,   79.1875,1478626975.115
  103.8125,   45.9375,   74.6250,1478626975.130
   92.0625,   29.3750,   58.1250,1478626975.153
   94.5625,   15.5625,   47.0000,1478626975.175
  171.5625,  -52.0625,   27.9375,1478626975.190
  985.6875, -138.9375,  274.0000,1478626975.221
  663.5625,  102.6875, -141.1250,1478626975.235
  897.3750, -140.0625,   34.3750,1478626975.258
  913.6875,  126.6875,  159.5625,1478626975.273
 1227.6250,  126.6250,  182.1875,1478626975.303
 2000.9375,  -93.6875, -150.3125,1478626975.310
 1780.1875,  382.6250,  337.1250,1478626975.332
  593.1250,  471.0000, -326.3125,1478626975.355
  266.5625,   82.9375,  276.2500,1478626975.370
  731.8750,  347.6250, -101.4375,1478626975.393
   63.4375,   61.9375,  -79.7500,1478626975.415
   83.0625,   33.6250,   72.1875,1478626975.430
    9.0000,   61.3125,  -58.1250,1478626975.453
  -87.6875, -137.3125,    3.1875,1478626975.475
   85.2500, -231.7500,  244.1250,1478626975.490
  110.9375, -256.9375,  136.8750,1478626975.513
  143.3750, -200.5625,   94.4375,1478626975.535
  120.2500, -172.6250,   83.0000,1478626975.550
  131.1250, -179.3125,   32.5000,1478626975.573
  -33.8750,   11.5000,  -27.4375,1478626975.603
  149.9375,   68.1250,  102.8750,1478626975.610
  195.4375, -552.6250,  -13.9375,1478626975.633
  277.0000, -245.3125, -228.6250,1478626975.655
  507.7500,  207.0000, -152.3125,1478626975.670
  806.3125,  998.5625, -410.0000,1478626975.700
 1512.2500, -142.4375,  125.4375,1478626975.715
 2000.9375,  196.5000, -317.0000,1478626975.730
  952.6875, -149.3125,   98.4375,1478626975.753
  691.7500, -127.5000,  153.3750,1478626975.783
  748.5625,   87.9375,  658.3750,1478626975.790
 1036.6875,  197.4375, -102.0625,1478626975.812
  459.5000, -146.4375,   45.8125,1478626975.827
  452.5000,   97.8750,   15.6250,1478626975.850
 -230.1250,  -93.0000,  -11.5625,1478626975.872
 -159.1250,  -66.6875,  -63.5625,1478626975.887
 -126.1875,  -11.0000,  -84.4375,1478626975.910
   21.2500,  -19.5625, -111.7500,1478626975.933
 -128.8750,    3.9375, -284.7500,1478626975.947
 -712.4375,   63.7500,  200.5000,1478626975.971
 -586.2500,  289.6875,  297.5000,1478626976.000
  -81.1250,  102.1250,   18.1250,1478626976.015
  -66.1250,  179.6875,   13.1875,1478626976.030
  -53.6875,  179.0625,  134.9375,1478626976.053
   -6.4375,  170.6875,  238.1250,1478626976.075
  -78.1250,  193.1250,  290.4375,1478626976.113
 -101.3750,  155.8125,  237.4375,1478626976.114
 -102.1250,  236.6875,  322.3125,1478626976.135
   15.1250,  282.5000,  467.3750,1478626976.165
   30.9375,  478.1875,  466.7500,1478626976.188
 -104.1250,  436.5625,  332.5625,1478626976.211
 -155.9375,  445.9375,  734.8750,1478626976.211
  -29.8125,  374.2500,  674.4375,1478626976.240
  -47.6250,  271.2500,  448.1875,1478626976.248
 -140.8750,   76.8125,  406.7500,1478626976.270
   12.3125,   19.5000,  301.1875,1478626976.293
  135.6875,   -6.8750,  179.8750,1478626976.308
  120.7500,  -93.8750,    6.1875,1478626976.330
  105.7500,  -89.8750,  -77.8750,1478626976.352
   16.6875, -105.1875,  -91.4375,1478626976.367
 -111.2500, -140.5000, -142.1250,1478626976.390
 -159.0625, -162.3125, -201.0625,1478626976.429
 -140.3750, -137.1875, -220.0625,1478626976.429
  -63.3125, -133.2500, -227.6875,1478626976.450
   54.3750, -102.7500, -287.0000,1478626976.473
  106.7500, -118.1250, -377.9375,1478626976.488
  120.0000, -133.6875, -479.6875,1478626976.510
  144.4375, -240.4375, -516.1250,1478626976.533
  126.8750, -246.0000, -580.6250,1478626976.548
  -59.1875, -204.1250, -790.2500,1478626976.570
   16.8125, -195.0000, -644.7500,1478626976.600
    1.0000, -155.9375, -567.8125,1478626976.608
   84.3750, -114.1875, -479.9375,1478626976.630
  179.6875, -100.5625, -429.6250,1478626976.653
   76.5000, -197.0625, -796.6875,1478626976.668
  -69.8125, -124.6250, -685.4375,1478626976.690
  225.6250,  -89.5625, -323.5625,1478626976.713
  204.6875,  -30.4375, -305.9375,1478626976.728
  227.8750,   13.4375, -170.8125,1478626976.750
   40.5000,    5.5625, -141.9375,1478626976.773
  -51.8125,  -43.5000, -106.8125,1478626976.788
  -72.6250,  -20.6250,  -27.8750,1478626976.810
  -61.5625,   10.8125,   61.1250,1478626976.833
  -31.5625,   61.3125,  142.6875,1478626976.848
  -21.4375,  103.1250,  225.2500,1478626976.877
  -41.6875,  128.0000,  287.4375,1478626976.892
  -31.5625,  161.1250,  354.7500,1478626976.908
  -33.6875,  199.6875,  408.1250,1478626976.930
  -78.7500,  197.6875,  439.3125,1478626976.952
  -64.5000,  196.1875,  442.7500,1478626976.967
  -70.6250,  190.7500,  485.8125,1478626976.990
  -73.5625,  149.4375,  503.1250,1478626977.013
  -72.0000,   79.0625,  602.0625,1478626977.028
  -68.0000,  -12.3125,  622.3750,1478626977.050
  -38.1875,   -6.2500,  632.6875,1478626977.073
   73.7500,  -11.6875,  613.7500,1478626977.088
   75.5000,  -87.0625,  536.0625,1478626977.110
  191.6875, -169.5000,  469.4375,1478626977.133
  228.2500, -315.6875,  380.3750,1478626977.155
  336.5625, -354.0000,  193.8750,1478626977.170
  314.8750, -418.5000,   95.0000,1478626977.193
  253.6875, -404.0000,  -20.3750,1478626977.208
  189.1875, -394.8125,  -39.7500,1478626977.230
  104.9375, -365.6250,  -27.6250,1478626977.260
   96.4375, -279.6875,  -21.9375,1478626977.267
   51.3125, -140.5625,  -48.0000,1478626977.290
  -44.0625,   -5.0625,  -47.6250,1478626977.312
  -16.8750,   93.8125,  -91.8125,1478626977.327
  -57.3750,  121.5625, -116.6875,1478626977.350
  -77.9375,  132.2500, -145.2500,1478626977.373
  -18.2500,   18.6875, -162.5000,1478626977.388
  -24.8750,  -82.9375, -179.6250,1478626977.410
   18.3750, -166.6875, -222.3750,1478626977.432
   10.9375, -248.8750, -235.2500,1478626977.447
   17.2500, -355.0000, -199.5625,1478626977.470
  -20.1250, -472.5625,  -10.4375,1478626977.485
  -71.7500, -491.1250,   26.5625,1478626977.507
  -22.3125, -541.0000,   21.0625,1478626977.530
  147.7500, -634.0625,  300.5000,1478626977.546
  123.2500, -522.3750,  258.7500,1478626977.568
  306.0000,  -38.8750,  -11.5625,1478626977.590
  340.1250,   23.9375, -159.1875,1478626977.605
  273.3125, -108.4375,   25.0625,1478626977.628
 -250.8125,   18.5625,    3.1875,1478626977.650
  -81.0625,  -70.3125,   66.5000,1478626977.673
 -189.5625,    7.5625,   52.9375,1478626977.688
  -52.1250,   68.1250,    7.1875,1478626977.710
  -10.1250,  132.1250,  -48.3125,1478626977.733
   40.1250,  151.3125,  -61.0000,1478626977.748
   34.9375,  194.2500,  -81.9375,1478626977.770
   -1.2500,  234.6875,  -81.3125,1478626977.785
  -38.6875,  277.7500,  -29.7500,1478626977.808
  -64.8125,  343.6250,  -53.2500,1478626977.830
 -100.0000,  402.5625,  -61.3750,1478626977.845
  -97.0000,  441.6250,  -44.8125,1478626977.867
  -69.6875,  507.0625,  -75.8125,1478626977.897
  -22.6875,  558.7500,  -78.8125,1478626977.906
   46.6250,  530.5000,  -97.1250,1478626977.927
  244.3750,  610.8750, -106.5625,1478626977.950
  109.4375,  683.3750, -184.8750,1478626977.965
  176.0000,  404.0000,  134.4375,1478626977.987
  150.5625,  273.0000,  222.0625,1478626978.010
  -39.0000,  367.8750,  124.2500,1478626978.025
 -211.6250,  457.3125,   52.1250,1478626978.048
 -118.3750,  335.5625,   15.2500,1478626978.070
   -5.2500,  151.2500,  -48.8125,1478626978.093
   66.9375, -239.0625,   -6.4375,1478626978.108
   26.9375, -379.7500,  -79.8750,1478626978.130
   52.6250, -361.8125,  -46.1875,1478626978.153
   -5.4375, -330.3750,   36.8125,1478626978.168
  -57.9375, -355.1875,  113.6250,1478626978.190
  -29.8750, -425.8750,  128.8125,1478626978.205
   45.9375, -410.0625,  123.2500,1478626978.228
  103.9375, -428.1875,  127.5000,1478626978.250
  -40.2500, -390.1875,  126.9375,1478626978.265
 -183.6250, -447.5625,   -4.8750,1478626978.288
 -414.9375, -578.6250,  -33.3750,1478626978.310
 -431.7500, -616.5625,  -17.6875,1478626978.325
 -348.2500, -614.5000,   70.9375,1478626978.348
 -262.1250, -533.9375,  112.8125,1478626978.370
   27.8750, -615.2500,   92.5000,1478626978.385
  307.5625,  187.9375,  -59.0000,1478626978.407
   15.5625,  238.3750, -205.2500,1478626978.430
 -166.7500,  175.7500,   -1.6875,1478626978.445
 -116.1250,  163.4375,  -18.0625,1478626978.467
  144.1250,  309.8125, -123.5000,1478626978.490
  164.2500,  349.9375, -114.5625,1478626978.505
   52.3750,  426.5625,  -69.6250,1478626978.527
 -120.1250,  447.1875,  -51.1250,1478626978.550
  -40.2500,  492.7500,   -0.4375,1478626978.565
   72.3125,  471.9375,   37.7500,1478626978.588
   73.2500,  510.5000,    0.3125,1478626978.610
   55.0000,  516.1875,   61.5625,1478626978.626
  -66.3750,  478.8125,   98.8750,1478626978.648
 -119.6875,  470.1875,  124.1250,1478626978.670
 -280.3750,  380.3750,  180.8125,1478626978.685
 -251.5625,  287.4375,  159.8125,1478626978.708
 -221.1250,  207.3125,   70.8125,1478626978.730
   34.3125,   60.1250, -131.3750,1478626978.745
  264.8125,  -50.1875, -235.0625,1478626978.768
 -179.0000, -197.0000, -274.2500,1478626978.790
 -176.3125,  -97.1250, -302.5625,1478626978.806
 -235.1875, -150.0000, -447.5625,1478626978.828
 -270.1875, -142.0625, -520.6250,1478626978.850
 -253.3125, -110.6250, -663.2500,1478626978.865
 -486.6250, -176.0000, -780.6250,1478626978.887
 -336.0000,   14.0625, -801.3125,1478626978.910
 -501.7500,   70.0000, -824.9375,1478626978.925
 -583.3125,  288.0000, -767.5000,1478626978.947
 -363.6875,  515.8750, -635.9375,1478626978.970
   36.5625,  647.2500, -444.8125,1478626978.985
 -264.0625,    3.9375, -542.5625,1478626979.008
 -269.5625,   38.8750, -474.2500,1478626979.030
 -140.0625,   62.3125, -235.1875,1478626979.045
 -123.9375,   68.5000, -167.3750,1478626979.067
 -216.3125, -140.3125, -117.7500,1478626979.090
  -51.6250, -163.0625,  -36.0625,1478626979.105
   72.0625, -161.8125,   50.5625,1478626979.128
  132.0625, -132.2500,   65.8750,1478626979.150
  105.3125, -116.1875,   81.1250,1478626979.166
   37.8750, -185.3125,   74.7500,1478626979.188
  137.8125, -163.6875,  159.3750,1478626979.210
  248.3125, -124.7500,  236.5000,1478626979.225
  328.5000, -118.5000,  462.8750,1478626979.248
  395.8750, -194.4375,  592.1875,1478626979.270
  333.8750, -146.0625,  595.8125,1478626979.285
  132.7500,  -93.6875,  585.6875,1478626979.308
  309.3750,  103.2500,  405.0625,1478626979.330
  159.2500,  270.1875,  423.3125,1478626979.346
  560.4375, -278.1875,  708.8125,1478626979.367
  835.1250, -152.4375,  773.1250,1478626979.391
 1331.1250,   93.1250,  693.5625,1478626979.405
 1332.5625,  245.5000,  472.2500,1478626979.427
 1698.7500,  183.8125,  543.2500,1478626979.450
 1352.1250,  192.0625,  548.0000,1478626979.465
 1213.0000,  148.4375,  543.8750,1478626979.487
 1130.7500,  126.3125,  405.8750,1478626979.510
  461.8750,  182.9375,  375.3750,1478626979.525
  236.7500, -199.2500,  590.7500,1478626979.547
 -194.5625, -459.1250,  412.4375,1478626979.577
 -346.5625, -303.6875,  252.6875,1478626979.585
 -628.6250, -314.0000,  313.6250,1478626979.615
 -690.8125, -406.1875,  468.8125,1478626979.623
-1043.3125, -366.8125,  285.3750,1478626979.653
 -849.7500, -405.5000,  -34.0625,1478626979.683
 -685.4375, -642.7500,  -62.1250,1478626979.690
 -453.7500, -702.9375,   41.4375,1478626979.706
   39.7500, -623.4375,   63.5625,1478626979.728
  -61.0000, -465.5625,  345.6250,1478626979.743
 -605.3125, -303.9375,  222.5625,1478626979.765
 -941.4375, -320.0000,  165.0000,1478626979.788
-1137.5000, -229.1875,  289.9375,1478626979.803
-1058.9375, -186.1250,  327.2500,1478626979.825
 -802.1250,  -63.0000,  314.2500,1478626979.848
 -266.6250,  -77.5000,  318.0625,1478626979.863
   19.7500,  -48.8750,  394.5000,1478626979.885
  160.1250,  -40.6875,  481.6875,1478626979.907
  362.8125,   -3.0625,  582.3750,1478626979.930
  638.4375,   34.9375,  525.4375,1478626979.945
  809.3750,  111.1875,  250.0000,1478626979.967
 1022.0000,  491.6250,   82.2500,1478626979.982
 1213.5000,  768.3750,  187.8750,1478626980.005
 1506.1250,  947.6875,   31.3125,1478626980.027
 1562.6875,  854.9375, -181.3125,1478626980.042
 1458.6250, 1122.7500,  112.0000,1478626980.065
 1861.6875, -128.5000,  438.4375,1478626980.087
  767.7500,-1002.5625, -840.3750,1478626980.102
  364.5625,  -88.0625,-1182.1875,1478626980.125
  854.7500,  545.8125, -264.0625,1478626980.148
  507.0000,  412.4375,  120.5625,1478626980.163
  -11.1875,  383.1875,  151.4375,1478626980.185
  202.9375, -156.4375,  235.2500,1478626980.208
   -8.8750,  269.0000,  -42.8125,1478626980.223
 -157.7500,  396.5000,  187.5000,1478626980.246
 -233.9375,   93.0625,  169.3750,1478626980.268
 -252.4375,  -46.9375,  -47.6875,1478626980.283
 -311.2500,  -93.2500,  -96.6250,1478626980.313
 -305.3750, -198.7500, -176.0625,1478626980.327
 -296.8125, -275.3750, -134.9375,1478626980.343
 -109.1250, -227.7500, -132.3750,1478626980.365
  112.1875, -198.9375,  -71.1250,1478626980.404
  397.1250, -103.6250,   60.5625,1478626980.405
  448.8750,  115.5625,   45.6875,1478626980.426
  317.6875,  135.0000,  -37.0000,1478626980.447
  419.9375,  -75.1250,  193.1250,1478626980.462
 -369.3750, -235.6875,  507.5625,1478626980.485
  -98.7500, -534.3125,  423.3125,1478626980.515
 -479.6250, -297.6875, -150.3750,1478626980.537
 -365.1875, -342.3125, -290.8750,1478626980.560
  -66.6875, -634.0625, -115.6250,1478626980.590
  115.4375, -403.4375,  300.8125,1478626980.597
  103.1250,  344.3750,  -58.0000,1478626980.620
   50.3125,  464.9375, -146.9375,1478626980.643
   54.4375,  593.3750,   19.8750,1478626980.665
  105.0000,   92.7500,  185.3125,1478626980.680
 -222.8750, -171.1250,    6.0625,1478626980.688
  310.0625, -482.5000,  346.5625,1478626980.703
  226.3750, -383.0625, -306.9375,1478626980.726
  104.8125, -228.1250, -461.4375,1478626980.748
  288.1875, -559.8125,  787.8750,1478626980.770
 -705.5625,  -39.8750,  -30.6250,1478626980.801
  130.0625,  769.8750, -330.6875,1478626980.815
  -78.3125,  636.5000, -110.4375,1478626980.830
  -51.1875,   49.4375,  215.8750,1478626980.853
  134.7500,   20.8750,  -75.6250,1478626980.875
  136.6250, -275.0000,  -99.0000,1478626980.898
  -97.2500, -488.1250,   95.2500,1478626980.920
  318.5625, -657.0000,  175.7500,1478626980.927
  245.5625, -582.5000,  337.8125,1478626980.950
 -460.4375,  153.7500, -136.5625,1478626980.973
 -317.8125,  496.5625, -273.1250,1478626981.004
   75.9375,  621.2500,  -26.2500,1478626981.010
 -226.3750,  347.4375,   88.5000,1478626981.040
  332.4375,  570.6875, -104.0000,1478626981.070
  151.5625, -167.1250,   91.7500,1478626981.077
 -471.4375, -480.4375,   -1.2500,1478626981.108
   76.7500, -941.0000,  176.5000,1478626981.109
   -8.0000, -783.6875,  103.9375,1478626981.130
 -294.6250,   98.5625, -175.1875,1478626981.161
 -200.1250,  608.5000, -139.1250,1478626981.183
   30.8750,  688.0000,  148.3750,1478626981.190
  -97.6875,  580.4375,  138.6250,1478626981.220
  -53.0625,  357.0625,  305.1875,1478626981.228
 -215.1875,  250.0000,  491.1250,1478626981.243
 -227.7500,  299.7500,  512.7500,1478626981.265
 -230.5625,  293.1250,  616.2500,1478626981.288
 -239.4375,  437.8750,  561.8125,1478626981.318
 -177.5625,  125.8125,  811.5625,1478626981.333
 -404.1875,   78.1875,  968.4375,1478626981.355
 -731.8750,    6.6875, 1458.4375,1478626981.378
 -723.2500,  -29.1250, 1376.1250,1478626981.385
 -780.0625,   27.4375, 1220.4375,1478626981.407
 -830.4375, -253.5625,  519.4375,1478626981.423
  261.1250, -583.7500,  -50.6250,1478626981.445
  -42.1250,  109.0000,  402.5000,1478626981.467
   68.9375,  313.5625,  474.2500,1478626981.497
   36.1250,  215.6875,  185.1875,1478626981.505
   65.3125,  214.6250,  148.7500,1478626981.527
 -148.4375,   68.0000,  260.7500,1478626981.542
 -227.3750,  -25.1875,  257.3125,1478626981.565
 -122.5000, -229.7500,   27.7500,1478626981.595
  130.5000, -318.7500, -291.5000,1478626981.610
  400.8125, -399.1250, -435.6250,1478626981.625
  771.6875, -387.9375, -523.3125,1478626981.647
 1247.8750, -384.8125, -462.1875,1478626981.662
 1573.1875, -760.7500, -380.0000,1478626981.686
 1224.0000, -874.9375,  -87.0625,1478626981.708
  945.0000,   44.6250, -344.3750,1478626981.723
 -331.5625,  396.6875, -494.5000,1478626981.745
 -852.0000,  374.6875, -723.7500,1478626981.760
-1292.9375,  282.7500,   29.1250,1478626981.783
-1999.0000,  415.8750,  523.1250,1478626981.805
 -755.5000, -645.1250,  643.0625,1478626981.820
  709.6250, -675.3125, -624.1875,1478626981.843
 1208.6875, -252.8750, -679.6250,1478626981.873
 1409.6875, -264.1250, -148.5000,1478626981.888
 1048.6875, -167.2500,    8.4375,1478626981.903
  296.6250,  323.6875, -491.7500,1478626981.925
 -534.6250,  231.1250,  167.3750,1478626981.940
-1412.2500,  591.5000,    8.3750,1478626981.962
 -534.1875,  151.1250,  307.5000,1478626981.985
  654.0000,-1025.6875,  668.5625,1478626982.000
 1058.5625, -849.5000, -102.4375,1478626982.022
 1093.5625, -479.9375,  104.4375,1478626982.046
  634.8125, -304.0625, -304.5625,1478626982.060
   47.3125,  294.7500, -457.6250,1478626982.082
-1604.8125,  200.6250, -189.8125,1478626982.105
 -426.0000,  192.0625,  107.5000,1478626982.120
 -339.9375,  994.3125,   36.6250,1478626982.150
  446.8750, -293.2500,  847.3125,1478626982.165
 1321.5625,-1015.3125,  510.0000,1478626982.180
 1157.8125, -611.3125,  358.9375,1478626982.202
  936.7500, -125.6875,   65.3125,1478626982.226
  331.7500,   36.1250,  120.5000,1478626982.240
 -420.6875, -160.6250, -311.8750,1478626982.263
-1020.8125,  -56.3750, -401.3125,1478626982.285
-1282.3125,  -68.1250, -612.8125,1478626982.300
-1285.5625,  217.6250, -348.5625,1478626982.323
 -643.3750,   80.5625, -182.3125,1478626982.345
 -721.5000, -338.5625,  309.8125,1478626982.360
  632.0000, -235.8750,  443.0000,1478626982.383
  101.5000,   83.8125,  459.8125,1478626982.405
 1233.8125, -766.6875,   36.3125,1478626982.428
  971.6250, -588.4375, -136.1875,1478626982.443
  691.6250, -450.4375, -323.1250,1478626982.465
  263.8125, -114.6875,  -85.8125,1478626982.480
  -98.1250, -135.9375,  -37.3125,1478626982.503
 -228.5625, -228.0000, -325.0625,1478626982.533
 -385.3750, -114.9375, -343.5625,1478626982.540
 -339.9375, -249.5625, -487.0625,1478626982.562
 -179.7500, -124.5000, -359.1250,1478626982.593
  -16.3750,  -69.0625, -366.3750,1478626982.600
  245.6875,  -38.6875, -249.8750,1478626982.622
  335.2500,  -27.6875, -218.1250,1478626982.645
  335.2500,  -23.6875, -235.6875,1478626982.660
  251.8750,   -6.2500, -202.5625,1478626982.682
  111.4375,    7.1875, -164.0625,1478626982.705
   25.6250,   22.4375, -100.1250,1478626982.720
  -50.6250,   51.6875,  -61.7500,1478626982.743
  -48.7500,   68.0000,  -25.0000,1478626982.773
  -29.1250,   58.1250,    8.8125,1478626982.780
  -12.3125,   -6.1250,  -37.7500,1478626982.803
   65.7500,   72.3750, -147.7500,1478626982.825
    1.8125,   43.5000,   -9.8750,1478626982.840
   94.0625, -247.8750,  -31.2500,1478626982.863
   92.9375, -165.2500,  -88.0000,1478626982.885
  -45.0000,   -5.2500,  -54.9375,1478626982.900
   30.1875,  129.0000,   55.8750,1478626982.923
  -35.4375,   67.1875,   76.8750,1478626982.945
  -25.4375,  -15.3125,   38.2500,1478626982.960
  -17.5000,  -24.3125,    3.5000,1478626982.983
  -17.6250,    3.9375,   30.6250,1478626983.005
  -40.8750,   17.5625,   51.3125,1478626983.020
  -47.9375,   17.0000,   23.6250,1478626983.042
  -33.3125,   10.6875,    7.3125,1478626983.072
   -4.1875,    0.6250,  -16.7500,1478626983.087
    2.4375,   10.3125,  -28.9375,1478626983.110
  -35.5000,   -8.5625,  -33.7500,1478626983.125
  -16.4375,   -8.0000,    2.7500,1478626983.140
    3.8750,   14.5625,   -3.7500,1478626983.162
   -5.0625,   10.3750,  -19.5625,1478626983.185
    1.9375,  -16.6250,  -30.7500,1478626983.200
   38.3750,  -12.8125,  -13.7500,1478626983.222
   31.4375,   23.3125,  -20.5625,1478626983.245
   10.6875,   11.3750,    3.1250,1478626983.260
  -12.0000,    0.3750,   -6.0625,1478626983.284
   -9.2500,  -18.0625,  -14.9375,1478626983.306
    3.3750,  -12.3125,  -11.5625,1478626983.320
    5.6875,   -0.3125,   -0.8125,1478626983.350
   10.2500,   -1.0625,    6.0625,1478626983.365
   16.3750,   -9.1250,   -1.8125,1478626983.388
   13.8750,  -22.5625,   -5.8125,1478626983.403
   10.6875,    8.8750,   -8.5000,1478626983.425
   17.3750,    5.5625,    0.5000,1478626983.440
   -7.8125,   -1.1875,  -12.4375,1478626983.463
   19.1250,   -0.5000,  -29.0000,1478626983.486
   50.1250,    6.8125,  -34.1250,1478626983.500
   27.2500,   -6.4375,  -45.8750,1478626983.537
   30.0000,    9.6875,  -40.8125,1478626983.545
   53.8750,   27.7500,  -33.0625,1478626983.560
   10.4375,   -8.8750,  -33.1875,1478626983.582
  -38.0625,  -24.6875,  -14.6875,1478626983.605
  -42.4375,   -7.8125,   -8.8750,1478626983.627
  -41.1875,   -2.7500,    3.3750,1478626983.642
  -15.5000,   11.6875,   -2.5000,1478626983.666
   16.3750,   20.5625,  -10.4375,1478626983.680
   22.8750,   18.3125,  -20.4375,1478626983.702
   10.5000,    5.6875,  -13.3750,1478626983.725
   12.4375,   -9.3750,   -6.1875,1478626983.740
   -5.3125,   -3.1875,   -6.8125,1478626983.770
  -24.0000,   -7.6875,    1.0625,1478626983.785
  -37.9375,   -3.8125,   -3.3750,1478626983.815
  -26.5625,   -6.1875,    4.4375,1478626983.838
   -2.7500,   -0.5625,    0.6875,1478626983.854
   10.1250,    8.5000,   -8.6250,1478626983.876
   10.6875,   11.3125,   -3.7500,1478626983.890
    3.0000,   11.3750,    3.7500,1478626983.913
    3.5625,    6.9375,    3.3750,1478626983.943
   15.1875,   -2.5625,  -15.5625,1478626983.958
   -1.9375,    4.5000,   -3.7500,1478626983.980
   -2.1875,   14.1250,    5.1875,1478626983.995
   -2.3125,    0.7500,    2.3125,1478626984.010
    1.6250,  -10.1875,   -7.7500,1478626984.025
   11.8125,   -7.3125,   -6.0000,1478626984.048
    9.3750,    3.4375,    4.6250,1478626984.062
    1.1875,    2.1875,    4.0625,1478626984.092
   -7.7500,   -0.0625,   -0.9375,1478626984.115
    2.6250,    3.5625,    0.6875,1478626984.122
    0.0000,    3.9375,   -0.6875,1478626984.137
    1.8125,    3.3125,   -3.4375,1478626984.160
    3.8750,    1.3125,    0.3125,1478626984.183
   -8.1250,   -3.8750,   -3.0000,1478626984.198
   -1.4375,   -1.3125,   -1.7500,1478626984.220
    0.9375,    1.9375,    0.5625,1478626984.242
   -0.8125,    1.5625,    1.0000,1478626984.257
    4.3125,    2.7500,    2.0000,1478626984.287
   -0.9375,    0.5625,    0.6250,1478626984.303
    0.8125,   -0.8125,   -0.0625,1478626984.325
    4.8750,    3.3125,   -1.2500,1478626984.348
    1.3125,    2.1250,    0.3125,1478626984.370
   -1.0000,    2.8750,    1.8750,1478626984.378
    3.6875,   -0.6250,   -1.0000,1478626984.400
   11.3750,    0.8125,   -0.9375,1478626984.423
    8.3125,   -1.6875,   -6.5000,1478626984.438
   13.0625,   -0.7500,   -1.1250,1478626984.460
   31.3750,    3.1875,   -5.8750,1478626984.483
    1.0625,    2.5000,    2.7500,1478626984.498
   -9.6875,    2.0000,    6.7500,1478626984.521
   -8.6250,   -2.0000,   -1.3125,1478626984.542
   -3.5625,   -4.1875,    0.2500,1478626984.565
